C:\MSDCHEM\1\DATA\20150910HYDE\150910Hyde057.d 15 Sep 15  10:23 pm
Start of data points
2.10977,23286
2.13195,21785
2.15412,19182
2.1763,19685
2.19847,19449
2.22065,17273
2.24283,17310
2.265,17012
2.28718,16724
2.30935,15556
2.33153,16227
2.35372,15788
2.37588,17552
2.39807,16515
2.42023,16601
2.44242,15518
2.46458,14980
2.48677,14873
2.50895,15380
2.53112,14715
2.5533,15393
2.57547,15178
2.59765,14002
2.61983,15412
2.642,14373
2.66418,13145
2.68635,14701
2.70853,14727
2.7307,14852
2.75288,13218
2.77507,14967
2.79723,13740
2.81942,14446
2.84158,15609
2.86377,14792
2.88595,13644
2.90812,14187
2.9303,13800
2.95247,12746
2.97465,13057
2.99683,13195
3.019,12616
3.04118,12223
3.06335,13125
3.08553,13862
3.1077,13906
3.12988,12658
3.15207,12582
3.17423,13280
3.19642,11950
3.21858,12687
3.24077,12800
3.26295,13683
3.28512,12244
3.3073,14041
3.32947,11372
3.35165,13496
3.37382,12975
3.396,11723
3.41818,12026
3.44035,12032
3.46253,12092
3.4847,12939
3.50688,11783
3.52907,12409
3.55123,11625
3.57342,11884
3.59558,10251
3.61777,12594
3.63993,10715
3.66212,11627
3.6843,11050
3.70647,11699
3.72865,10780
3.75082,12035
3.773,11658
3.79518,10790
3.81735,10881
3.83953,10731
3.8617,10275
3.88388,11356
3.90605,11979
3.92823,11727
3.95042,10788
3.97258,11101
3.99477,10868
4.01693,9768
4.03912,11913
4.0613,10587
4.08347,11546
4.10565,10987
4.12782,9905
4.15,11391
4.17217,10388
4.19435,10125
4.21653,10141
4.2387,10644
4.26088,10309
4.28305,10560
4.30523,9680
4.32742,10966
4.34958,11467
4.37177,16758
4.39393,36461
4.41612,90802
4.43828,118337
4.46047,86073
4.48265,50504
4.50482,33244
4.527,26829
4.54917,24146
4.57135,22774
4.59353,23624
4.6157,33066
4.63788,35114
4.66005,28466
4.68223,23038
4.7044,20912
4.72658,17048
4.74877,16901
4.77093,15414
4.79312,14052
4.81528,14301
4.83747,13137
4.85965,13775
4.88182,13113
4.904,13441
4.92617,10503
4.94835,11553
4.97052,11133
4.9927,10341
5.01488,10637
5.03705,10495
5.05923,11442
5.0814,10628
5.10358,10143
5.12577,10612
5.14793,10071
5.17012,9763
5.19228,10739
5.21447,10994
5.23665,9668
5.25882,9507
5.281,9589
5.30317,10679
5.32535,9159
5.34752,9275
5.3697,11250
5.39188,9767
5.41405,10519
5.43623,9870
5.4584,9988
5.48058,8655
5.50277,8947
5.52493,8520
5.54712,7492
5.56928,8747
5.59147,8514
5.61363,8069
5.63582,9170
5.658,7925
5.68017,10798
5.70235,14005
5.72452,14300
5.7467,14879
5.76888,11612
5.79105,9846
5.81323,10887
5.8354,12397
5.85758,11763
5.87975,11391
5.90193,9412
5.92412,7809
5.94628,8342
5.96847,8656
5.99063,9022
6.01282,6985
6.035,8562
6.05717,8212
6.07935,8470
6.10152,7858
6.1237,7671
6.14587,7574
6.16805,7236
6.19023,7577
6.2124,7406
6.23458,7497
6.25675,8411
6.27893,9854
6.30112,13778
6.32328,15260
6.34547,11996
6.36763,8417
6.38982,7944
6.41198,8498
6.43417,6648
6.45635,7244
6.47852,8742
6.5007,10306
6.52287,17497
6.54505,25907
6.56723,21396
6.5894,15301
6.61158,11148
6.63375,9235
6.65593,8523
6.6781,8014
6.70028,7312
6.72247,8168
6.74463,7486
6.76682,7481
6.78898,7533
6.81117,7477
6.83335,7617
6.85552,7015
6.8777,6888
6.89987,7001
6.92205,6427
6.94422,6273
6.9664,7412
6.98858,6580
7.01075,6570
7.03293,6962
7.0551,7698
7.07728,6748
7.09947,6341
7.12163,6640
7.14382,7762
7.16598,6785
7.18817,6783
7.21033,8053
7.23252,7260
7.2547,6893
7.27687,6504
7.33835,7794
7.35548,7026
7.3726,6876
7.38973,5951
7.40685,5738
7.42398,6302
7.44112,5970
7.45823,6692
7.47537,6232
7.4925,6890
7.50962,6209
7.52675,6523
7.54387,7348
7.561,8881
7.57813,8621
7.59525,9706
7.61238,9795
7.6295,8549
7.64663,8707
7.66377,7349
7.68088,7274
7.69802,8146
7.71515,6872
7.73227,6325
7.7494,6619
7.76652,6309
7.78365,6579
7.80078,6646
7.8179,7173
7.83503,6469
7.85215,6085
7.86928,6053
7.88642,5397
7.90353,6473
7.92067,6236
7.93778,6445
7.95492,5212
7.97205,6051
7.98917,6286
8.0063,6595
8.02343,5900
8.04055,5995
8.05768,6076
8.0748,5612
8.09193,5086
8.10907,5941
8.12618,4956
8.14332,5904
8.16043,5488
8.17757,5349
8.1947,5900
8.21182,5602
8.22895,5209
8.24607,5188
8.2632,5420
8.28033,5362
8.29745,5929
8.31458,5341
8.33172,5395
8.34883,4886
8.36597,4358
8.38308,4949
8.40022,5715
8.41735,5144
8.43447,5736
8.4516,5173
8.46872,5632
8.48585,5551
8.50298,5308
8.5201,5260
8.53723,5558
8.55437,5066
8.57148,5034
8.58862,5569
8.60573,5390
8.62287,4440
8.64,5738
8.65712,4829
8.67425,4993
8.69137,4983
8.7085,5791
8.72563,5703
8.74275,5355
8.75988,5798
8.777,4791
8.79413,5313
8.81127,5574
8.82838,4986
8.84552,4269
8.86265,5851
8.87977,4367
8.8969,5127
8.91402,5398
8.93115,5513
8.94828,4748
8.9654,4379
8.98253,5043
8.99965,4887
9.01678,4029
9.03392,5365
9.05103,4737
9.06817,3660
9.0853,4578
9.10242,4378
9.11955,5359
9.13667,4749
9.1538,4781
9.17093,5093
9.18805,4899
9.20518,5814
9.2223,5414
9.23943,4931
9.25657,4921
9.27368,4415
9.29082,4598
9.30793,4496
9.32507,4951
9.3422,5189
9.35932,4928
9.37645,4319
9.39358,4638
9.4107,3970
9.42783,4428
9.44495,4236
9.46208,4480
9.47922,4098
9.49633,3481
9.51347,4276
9.53058,4664
9.54772,4563
9.56485,4551
9.58197,4406
9.5991,4496
9.61623,4675
9.63335,4329
9.65048,4742
9.6676,3855
9.68473,4398
9.70187,4744
9.71898,5930
9.73612,8032
9.75323,8846
9.77037,8527
9.7875,7937
9.80462,6269
9.82175,4652
9.83887,5763
9.856,4646
9.87313,4903
9.89025,4471
9.90738,4231
9.92452,4309
9.94163,4763
9.95877,4769
9.97588,4654
9.99302,4148
10.0102,4748
10.0273,4795
10.0444,4397
10.0615,4377
10.0787,3980
10.0958,4848
10.1129,4322
10.13,3750
10.1472,4005
10.1643,4206
10.1814,4515
10.1985,4539
10.2157,3780
10.2328,4401
10.2499,3891
10.2671,4193
10.2842,4279
10.3013,4317
10.3184,3724
10.3356,4404
10.3527,4059
10.3698,4887
10.3869,4225
10.4041,4509
10.4212,4602
10.4383,4526
10.4555,4096
10.4726,4298
10.4897,3841
10.5068,4285
10.524,3995
10.5411,4027
10.5582,4201
10.5753,3842
10.6301,4210
10.6506,3572
10.6711,4132
10.6915,3684
10.712,4267
10.7325,4131
10.753,4021
10.7735,3576
10.794,4164
10.8145,3676
10.8349,3994
10.8554,4117
10.8759,3706
10.8964,4263
10.9169,4654
10.9374,5230
10.9579,6153
10.9783,6986
10.9988,5248
11.0193,5240
11.0398,4569
11.0603,5435
11.0808,5012
11.1013,5254
11.1218,4723
11.1422,4704
11.1627,4087
11.1832,4334
11.2037,5341
11.2242,4881
11.2447,3678
11.2652,3217
11.2856,4695
11.3061,3568
11.3266,3637
11.3471,3669
11.3676,4602
11.3881,3670
11.4086,3857
11.4291,3865
11.4495,4195
11.47,3701
11.4905,4552
11.511,4439
11.5315,4075
11.552,3731
11.5725,3922
11.5929,5454
11.6134,5841
11.6339,6312
11.6544,5153
11.6749,4395
11.6954,4075
11.7159,3238
11.7363,3698
11.7568,3944
11.7773,3535
11.7978,3669
11.8183,3504
11.8388,3694
11.8593,3790
11.8798,3516
11.9002,3522
11.9207,4368
11.9412,4337
11.9617,4045
11.9822,4333
12.0027,4386
12.0232,4693
12.0436,4487
12.0641,5243
12.0846,5266
12.1051,4512
12.1256,5318
12.1461,5341
12.1666,5240
12.1871,5826
12.2075,6490
12.228,6794
12.2485,6400
12.269,6162
12.2895,5835
12.31,5249
12.3305,5179
12.3509,4429
12.3714,4860
12.3919,3788
12.4124,3762
12.4329,4163
12.4534,3602
12.4739,4191
12.4943,4448
12.5148,4119
12.5353,4930
12.5558,4265
12.5763,3972
12.5968,4256
12.6173,4078
12.6378,4144
12.6582,4362
12.6787,4133
12.6992,4233
12.7197,3705
12.7402,4150
12.7607,3758
12.7812,4585
12.8016,4575
12.8221,4347
12.8426,4518
12.8631,4255
12.8836,4048
12.9041,4010
12.9246,3207
12.9451,3926
12.9655,3887
12.986,3670
13.0065,4230
13.027,4112
13.0475,4026
13.068,3565
13.0885,3857
13.1089,4127
13.1294,3849
13.1499,3673
13.1704,4083
13.1909,3531
13.2114,4236
13.2319,3310
13.2523,3679
13.2728,3717
13.2933,3709
13.3138,4343
13.3343,3084
13.3548,3285
13.3753,3629
13.3958,2879
13.4162,4457
13.4367,3962
13.4572,3308
13.4777,3285
13.4982,3705
13.5187,3844
13.5392,3473
13.5596,3360
13.5801,3186
13.6006,3416
13.6211,2583
13.6416,4135
13.6621,3102
13.6826,3519
13.7031,3323
13.7235,3931
13.744,3984
13.7645,3562
13.785,3314
13.8055,3594
13.826,3781
13.8465,3564
13.8669,3757
13.8874,3446
13.9079,3885
13.9284,3075
13.9489,2776
13.9694,3360
13.9899,3626
14.0103,3902
14.0308,3495
14.0513,3018
14.0718,3522
14.0923,3465
14.1128,3555
14.1333,3628
14.1538,3606
14.1742,3593
14.1947,3396
14.2152,3572
14.2357,4063
14.2562,4041
14.2767,3083
14.2972,2990
14.3176,3563
14.3381,3669
14.3586,3799
14.3791,3017
14.3996,3506
14.4201,3420
14.4406,3000
14.461,3440
14.4815,3240
14.502,3294
14.5225,3459
14.543,3323
14.5635,3244
14.584,3357
14.6045,3862
14.6249,3293
14.6454,3760
14.6659,3335
14.6864,3235
14.7069,3642
14.7274,3395
14.7479,3458
14.7683,3388
14.7888,3811
14.8093,3091
14.8298,3579
14.8503,4235
14.8708,3510
14.8913,3842
14.9118,3729
14.9322,3710
14.9527,4200
14.9732,3939
14.9937,3496
15.0142,3662
15.0347,4119
15.0552,3354
15.0756,3832
15.0961,4135
15.1166,3870
15.1371,3562
15.1576,3348
15.1781,3682
15.1986,3582
15.219,3313
15.2395,3923
15.26,3306
15.2805,3407
15.301,3231
15.3215,3895
15.342,3492
15.3625,3517
15.3829,3539
15.4034,3915
15.4239,3730
15.4444,3664
15.4649,3869
15.4854,4086
15.5059,4416
15.5263,3367
15.5468,3416
15.5673,3055
15.5878,3852
15.6083,3616
15.6288,3508
15.6493,4305
15.6698,4736
15.6902,4838
15.7107,5353
15.7312,4883
15.7517,4234
15.7722,3425
15.7927,4423
15.8132,4014
15.8336,4070
15.8541,3468
15.8746,4059
15.8951,3712
15.9156,3618
15.9361,3359
15.9566,4054
15.977,3612
15.9975,3356
16.018,3512
16.0385,3829
16.059,3637
16.0795,3527
16.1,4204
16.1205,4056
16.1409,4504
16.1614,5711
16.1819,4766
16.2024,5506
16.2229,4387
16.2434,4987
16.2639,4330
16.2843,3994
16.3048,3499
16.3253,4022
16.3458,3858
16.3663,3715
16.3868,3478
16.4073,3856
16.4278,3705
16.4482,3327
16.4687,3718
16.4892,3484
16.5097,3432
16.5302,3386
16.5507,4194
16.5711,3801
16.5916,4064
16.6121,4291
16.6326,3712
16.6531,4302
16.6736,3630
16.6941,3885
16.7145,3860
16.735,3319
16.7555,3071
16.776,3649
16.7965,3940
16.817,3574
16.8375,3710
16.858,3618
16.8785,3884
16.8989,3065
16.9194,3629
16.9399,3514
16.9604,2998
16.9809,2975
17.0014,3385
17.0219,3144
17.0423,4004
17.0628,3830
17.0833,4042
17.1038,3563
17.1243,3300
17.1448,3634
17.1653,4184
17.1857,3206
17.2062,3529
17.2267,3034
17.2472,3202
17.2677,3738
17.2882,3500
17.3087,3272
17.3291,3189
17.3496,3255
17.3701,3064
17.3906,3239
17.4111,3811
17.4316,3243
17.4521,3149
17.4725,3770
17.493,3698
17.5135,3696
17.534,3385
17.5545,3587
17.575,3623
17.5955,3304
17.616,3427
17.6365,3133
17.6569,3503
17.6774,3299
17.6979,3853
17.7184,3985
17.7389,3355
17.7594,3795
17.7799,3380
17.8363,3244
17.8517,3706
17.8672,3726
17.8826,3536
17.8981,3410
17.9135,3528
17.9289,3600
17.9444,4070
17.9598,4074
17.9753,3647
17.9907,4037
18.0062,3379
18.0216,3467
18.0371,4459
18.0525,4192
18.068,4161
18.0834,3464
18.0988,3107
18.1143,3758
18.1297,4251
18.1452,4243
18.1606,3834
18.1761,3434
18.1915,4099
18.207,3587
18.2224,4072
18.2378,4524
18.2533,4496
18.2687,3805
18.2842,3073
18.2996,3481
18.3151,3429
18.3305,4086
18.346,3129
18.3614,3685
18.3768,4416
18.3923,4910
18.4077,4732
18.4232,4658
18.4386,5432
18.4541,3688
18.4695,3581
18.485,3826
18.5004,4123
18.5159,3791
18.5313,3522
18.5467,3825
18.5622,3281
18.5776,4187
18.5931,3691
18.6085,4169
18.624,3867
18.6394,3117
18.6549,3772
18.6703,4595
18.6857,3533
18.7012,3300
18.7166,4266
18.7321,3823
18.7475,3999
18.763,3970
18.7784,3856
18.7939,3513
18.8093,4062
18.8248,3150
18.8402,4066
18.8556,3310
18.8711,4027
18.8865,4322
18.902,4006
18.9174,3506
18.9329,4579
18.9483,3980
18.9638,4273
18.9792,4157
18.9946,4216
19.0101,3787
19.0255,3343
19.041,3812
19.0564,3777
19.0719,3712
19.0873,3510
19.1028,4105
19.1182,3204
19.1336,4326
19.1491,3373
19.1645,3805
19.18,3999
19.1954,3927
19.2109,3860
19.2263,3724
19.2418,3791
19.2572,4406
19.2727,3812
19.2881,3190
19.3035,3580
19.319,4169
19.3344,3840
19.3499,3616
19.3653,3806
19.3808,4197
19.3962,3879
19.4117,3563
19.4271,3696
19.4426,3469
19.458,4161
19.4734,3952
19.4889,4017
19.5043,3263
19.5198,3461
19.5352,3210
19.5507,3924
19.5661,3712
19.5816,3862
19.597,3920
19.6124,3475
19.6279,4105
19.6433,3214
19.6588,3591
19.6742,4338
19.6897,3731
19.7051,3881
19.7205,4061
19.736,3367
19.7514,3754
19.7669,4283
19.7823,3454
19.7978,3875
19.8132,3935
19.8287,3876
19.8441,3690
19.8596,3637
19.875,4139
19.8905,3890
19.9059,3795
19.9213,3780
19.9368,4469
19.9522,3756
19.9677,3769
19.9831,3934
19.9986,4176
20.014,2859
20.0295,3928
20.0449,4570
20.0603,3571
20.0758,4346
20.0912,3791
20.1067,4660
20.1221,3379
20.1376,4208
20.153,4249
20.1685,3990
20.1839,3589
20.1994,3158
20.2148,4017
20.2302,4582
20.2457,3577
20.2611,3724
20.2766,4134
20.292,4044
20.3075,3672
20.3229,3790
20.3384,4488
20.3538,3634
20.3692,4347
20.3847,4454
20.4001,3699
20.4156,3295
20.431,3562
20.4465,3615
20.4619,3866
20.4774,3568
20.4928,4604
20.5083,3834
20.5237,3837
20.5391,3741
20.5546,3807
20.57,3989
20.5855,3646
20.6009,4081
20.6164,3599
20.6318,3314
20.6473,4138
20.6627,3151
20.6781,3834
20.6936,4140
20.709,4346
20.7245,4830
20.7399,3609
20.7554,4238
20.7708,4093
20.7863,3654
20.8017,3987
20.8172,4325
20.8326,3404
20.848,3761
20.8635,4172
20.8789,4018
20.8944,4089
20.9098,4210
20.9253,3356
20.9407,4288
20.9562,3841
20.9716,4005
20.987,3830
21.0025,3916
21.0179,4103
21.0334,4294
21.0488,4709
21.0643,4514
21.0797,3888
21.0952,3522
21.1106,4371
21.126,3249
21.1415,3501
21.1569,4247
21.1724,4067
21.1878,3791
21.2033,3875
21.2187,4244
21.2342,3688
21.2496,3587
21.2651,4443
21.2805,4295
21.2959,4753
21.3114,4106
21.3268,4226
21.3423,4616
21.3577,4059
21.3732,4420
21.3886,3952
21.4041,4358
21.4195,4199
21.4349,4504
21.4504,4107
21.4658,4047
21.4813,3972
21.4967,4061
21.5122,3719
21.5276,4414
21.5431,4265
21.5585,4072
21.574,3980
21.5894,4044
21.6048,4135
21.6203,4024
21.6357,5133
21.6512,4125
21.6666,4363
21.6821,4633
21.6975,4391
21.7129,6124
21.7284,6886
21.7438,5627
21.7593,6045
21.7747,5994
21.7902,4614
21.8056,6078
21.8211,5476
21.8365,4863
21.852,4179
21.8674,4783
21.8829,5002
21.8983,4389
21.9137,4225
21.9292,3963
21.9446,4685
21.9601,3569
21.9755,3744
21.991,4747
22.0064,4556
22.0219,4043
22.0373,4100
22.0527,3488
22.0682,4580
22.0836,4965
22.0991,4671
22.1145,4829
22.13,4961
22.1454,4982
22.1609,4348
22.1763,4951
22.1918,4112
22.2072,4298
22.2226,4102
22.2381,4212
22.2535,4795
22.269,4486
22.2844,4653
22.2999,3707
22.3153,4217
22.3308,3741
22.3462,4358
22.3616,4714
22.3771,3897
22.3925,4215
22.408,4155
22.4234,4073
22.4389,4144
22.4543,4833
22.4698,4692
22.4852,4428
22.5007,4085
22.5161,4319
22.5315,3637
22.547,4179
22.5624,4914
22.5779,4323
22.5933,4419
22.6088,4248
22.6242,4403
22.6397,4277
22.6551,3983
22.6705,3870
22.686,4706
22.7014,4493
22.7169,4048
22.7323,4252
22.7478,5004
22.7632,4301
22.7787,4376
22.7941,4912
22.8095,3575
22.825,4651
22.8404,4288
22.8559,3345
22.8713,4159
22.8868,3935
22.9022,4434
22.9177,4279
22.9331,4846
22.9486,4537
22.964,4763
22.9794,4495
22.9949,4272
23.0103,4096
23.0258,4637
23.0412,4569
23.0567,3946
23.0721,4549
23.0876,3681
23.103,3988
23.1184,4425
23.1339,4178
23.1493,4092
23.1648,4685
23.1802,4185
23.1957,4408
23.2111,4593
23.2266,4827
23.242,4014
23.2575,4666
23.2729,5037
23.2883,4186
23.3038,4597
23.3192,4599
23.3347,5206
23.3501,4283
23.3656,3899
23.381,4119
23.3965,5763
23.4119,4518
23.4273,6051
23.4428,5766
23.4582,3884
23.4737,4861
23.4891,4490
23.5046,4542
23.52,4999
23.5355,4779
23.5509,4772
23.5664,4170
23.5818,4690
23.5972,4667
23.6127,4262
23.6281,4314
23.6436,4159
23.659,4887
23.6745,4891
23.6899,5077
23.7054,4857
23.7208,3490
23.7362,4048
23.7517,4707
23.7671,5561
23.7826,4624
23.834,4930
23.8545,4288
23.8749,4436
23.8954,5056
23.9159,3925
23.9364,4325
23.9569,4356
23.9774,4583
23.9979,4357
24.0184,5182
24.0389,4963
24.0594,4474
24.0799,4339
24.1003,3738
24.1208,3828
24.1413,4655
24.1618,5187
24.1823,4333
24.2028,4633
24.2233,4531
24.2438,5133
24.2643,4282
24.2848,4485
24.3053,3997
24.3258,4647
24.3462,4592
24.3667,4727
24.3872,4689
24.4077,5084
24.4282,4776
24.4487,4624
24.4692,4733
24.4897,4863
24.5102,4253
24.5307,4111
24.5512,4054
24.5716,5340
24.5921,4610
24.6126,4242
24.6331,4652
24.6536,4574
24.6741,5111
24.6946,5130
24.7151,5034
24.7356,4957
24.7561,5096
24.7766,4510
24.7971,5015
24.8175,5020
24.838,5015
24.8585,4697
24.879,5000
24.8995,4892
24.92,4790
24.9405,4538
24.961,4911
24.9815,4674
25.002,4606
25.0225,4573
25.0429,4134
25.0634,6018
25.0839,5014
25.1044,4953
25.1249,4968
25.1454,5358
25.1659,5368
25.1864,4458
25.2069,4788
25.2274,5075
25.2479,4450
25.2684,4263
25.2888,4624
25.3093,5484
25.3298,4970
25.3503,5335
25.3708,5179
25.3913,5067
25.4118,5162
25.4323,5040
25.4528,4785
25.4733,5459
25.4938,5002
25.5142,4658
25.5347,4543
25.5552,4831
25.5757,5586
25.5962,4963
25.6167,4802
25.6372,5999
25.6577,5619
25.6782,6957
25.6987,6237
25.7192,5612
25.7397,5315
25.7601,5413
25.7806,5188
25.8011,4697
25.8216,4927
25.8421,5250
25.8626,4806
25.8831,4794
25.9036,5385
25.9241,6280
25.9446,5557
25.9651,5243
25.9855,4591
26.006,5611
26.0265,5076
26.047,4944
26.0675,5646
26.088,4903
26.1085,4481
26.129,5234
26.1495,5747
26.17,4365
26.1905,5836
26.211,5521
26.2314,5217
26.2519,5049
26.2724,6459
26.2929,5269
26.3134,5656
26.3339,5695
26.3544,5614
26.3749,4805
26.3954,5520
26.4159,6010
26.4364,5094
26.4568,5859
26.4773,5492
26.4978,5040
26.5183,5766
26.5388,5659
26.5593,5766
26.5798,5403
26.6003,6066
26.6208,5448
26.6413,5788
26.6618,5623
26.6822,5608
26.7027,6531
26.7232,5399
26.7437,5310
26.7642,5423
26.7847,5699
26.8052,5498
26.8257,5637
26.8462,5524
26.8667,6239
26.8872,5673
26.9077,5564
26.9281,5793
26.9486,5692
26.9691,5188
26.9896,5724
27.0101,5629
27.0306,6195
27.0511,5686
27.0716,5504
27.0921,5709
27.1126,6273
27.1331,4730
27.1535,5783
27.174,6069
27.1945,5773
27.215,5982
27.2355,5636
27.256,6001
27.2765,5190
27.297,6358
27.3175,6302
27.338,5400
27.3585,5859
27.379,5096
27.3994,5510
27.4199,6115
27.4404,5827
27.4609,6340
27.4814,5957
27.5019,6118
27.5224,5002
27.5429,4909
27.5634,6207
27.5839,6874
27.6044,5681
27.6248,5944
27.6453,5729
27.6658,6122
27.6863,6109
27.7068,5712
27.7273,5231
27.7478,6194
27.7683,5839
27.7888,6167
27.8093,5876
27.8298,6117
27.8503,6114
27.8707,7142
27.8912,6780
27.9117,6687
27.9322,6588
27.9527,5375
27.9732,6283
27.9937,6162
28.0142,5600
28.0347,6010
28.0552,6107
28.0757,6352
28.0961,5602
28.1166,6357
28.1371,6133
28.1576,6455
28.1781,5508
28.1986,5911
28.2191,5912
28.2396,6226
28.2601,5469
28.2806,5123
28.3011,5967
28.3216,6446
28.342,7031
28.3625,5718
28.383,6141
28.4035,6215
28.424,6130
28.4445,6135
28.465,6681
28.4855,7177
28.506,6963
28.5265,6773
28.547,6521
28.5674,6423
28.5879,5917
28.6084,6034
28.6289,7243
28.6494,7038
28.6699,5625
28.6904,5809
28.7109,6133
28.7314,6011
28.7519,6217
28.7724,7151
28.7929,6366
28.8133,6839
28.8338,6746
28.8543,6633
28.8748,7044
28.8953,6425
28.9158,7832
28.9363,6674
28.9568,6971
28.9773,6188
28.9978,5734
29.0183,7413
29.0387,6984
29.0592,6088
29.0797,6112
29.1002,6729
29.1207,6725
29.1412,7255
29.1617,5792
29.1822,6387
29.2027,6300
29.2232,6941
29.2437,7261
29.2642,5292
29.2846,5568
29.3051,6677
29.3256,7002
29.3461,6423
29.3666,7080
29.3871,7229
29.4076,7053
29.4281,6371
29.4486,6797
29.4691,6545
29.4896,7245
29.51,6518
29.5305,6371
29.551,6848
29.5715,7000
29.592,6874
29.6125,9489
29.633,12688
29.6535,16652
29.674,18365
29.6945,21008
29.715,17466
29.7354,15118
29.7559,11560
29.7764,10370
29.7969,9716
29.8174,8551
29.8379,9223
29.8584,8525
29.8789,8730
29.8994,8435
29.9199,8250
29.9404,7340
29.9609,7968
29.9813,7990
30.0018,7259
30.0223,8139
30.0428,7222
30.0633,6918
30.0838,6346
30.1043,6905
30.1248,6847
30.1453,6866
30.1658,7014
30.1863,6657
30.2067,6772
30.2272,6645
30.2477,7106
30.2682,7292
30.2887,7736
30.3092,6562
30.3297,7065
30.3502,7590
30.3707,7134
30.3912,6898
30.4117,6857
30.4322,7149
30.4526,8023
30.4731,7335
30.4936,7264
30.5141,6071
30.5346,7019
30.5551,7375
30.5756,6900
30.5961,7890
30.6166,6981
30.6371,6804
30.6576,7276
30.678,6688
30.6985,6530
30.719,6765
30.7395,7651
30.76,7572
30.7805,7664
30.801,7799
30.8215,7647
30.842,6849
30.8625,7711
30.883,7552
30.9035,6906
30.9239,8205
30.9444,7503
30.9649,8558
30.9854,7064
31.0059,6988
31.0264,7175
31.0469,6613
31.0674,6937
31.0879,7261
31.1084,8004
31.1289,7072
31.1493,7059
31.1698,8031
31.1903,6918
31.2108,7514
31.2313,6831
31.2518,7064
31.2723,7926
31.2928,7703
31.3133,8001
31.3338,9162
31.3543,8182
31.3748,7588
31.3952,8817
31.4157,7351
31.4362,8525
31.4567,7638
31.4772,7210
31.4977,7058
31.5182,8520
31.5387,7893
31.5592,8204
31.5797,8055
31.6002,7444
31.6206,8717
31.6411,7181
31.6616,7614
31.6821,6765
31.7026,7939
31.7231,7537
31.7436,9372
31.7641,7730
31.7846,8489
31.8051,8596
31.8256,8015
31.8461,8493
31.8665,7487
31.928,7514
31.9485,8499
31.969,8115
31.9895,7740
32.01,8891
32.0305,8106
32.051,8095
32.0714,8748
32.0919,7912
32.1124,8273
32.1329,8585
32.1534,8008
32.1739,8670
32.1944,8074
32.2149,7616
32.2354,8844
32.2559,9006
32.2764,8661
32.2968,9230
32.3173,9226
32.3378,8132
32.3583,9146
32.3788,8663
32.3993,7802
32.4198,9197
32.4403,9138
32.4608,7558
32.4813,9762
32.5018,7557
32.5222,8077
32.5427,8948
32.5632,8860
32.5837,8266
32.6042,8563
32.6247,7611
32.6452,8720
32.6657,9016
32.6862,8961
32.7067,9531
32.7272,8649
32.7476,10142
32.7681,9466
32.7886,10077
32.8091,9413
32.8296,10005
32.8501,9350
32.8706,9211
32.8911,9192
32.9116,8450
32.932,9537
32.9526,8463
32.973,8364
32.9935,8987
33.014,9686
33.0345,9387
33.055,9029
33.0755,8444
33.096,7897
33.1165,9238
33.137,9690
33.1574,8743
33.178,8913
33.1984,8087
33.2189,8816
33.2394,8888
33.2599,8700
33.2804,9769
33.3009,9787
33.3214,9343
33.3419,10291
33.3624,9578
33.3828,9749
33.4033,8298
33.4238,9671
33.4443,9959
33.4648,9521
33.4853,9438
33.5058,9705
33.5263,9232
33.5468,9162
33.5673,10052
33.5878,9755
33.6082,9892
33.6287,9503
33.6492,9648
33.6697,10096
33.6902,8890
33.7107,9162
33.7312,9610
33.7517,8910
33.7722,9737
33.7927,9309
33.8132,10768
33.8336,9587
33.8541,8855
33.8746,9416
33.8951,9051
33.9156,9791
33.9361,10371
33.9566,10270
33.9771,9354
33.9976,10829
34.0181,10194
34.0386,10581
34.059,9971
34.0795,9991
34.1,9680
34.1205,9382
34.141,11107
34.1615,9097
34.182,9891
34.2025,9775
34.223,10407
34.2435,10663
34.264,9654
34.2845,9408
34.3049,10265
34.3254,10464
34.3459,9774
34.3664,10832
34.3869,10411
34.4074,10782
34.4279,11035
34.4484,11357
34.4689,10770
34.4894,9855
34.5098,11578
34.5303,10753
34.5508,9806
34.5713,9798
34.5918,9711
34.6123,10230
34.6328,10248
34.6533,10462
34.6738,9559
34.6942,11156
34.7148,11358
34.7352,11210
34.7557,10718
34.7762,10464
34.7967,10033
34.8172,10723
34.8377,10507
34.8582,10838
34.8787,11617
34.8992,11497
34.9196,11565
34.9402,11529
34.9606,12254
34.9811,13759
35.0016,11594
35.0221,11191
35.0426,11668
35.0631,12187
35.0836,11494
35.1041,11069
35.1246,13216
35.1451,11618
35.1656,11601
35.186,11621
35.2065,12690
35.227,12163
35.2475,12283
35.268,11158
35.2885,11859
35.309,12302
35.3295,12509
35.35,12930
35.3704,12363
35.391,12431
35.4114,11962
35.4319,11659
35.4524,13732
35.4729,12188
35.4934,12120
35.5139,12975
35.5344,14470
35.5549,14017
35.5754,13766
35.5958,13829
35.6163,13765
35.6368,13308
35.6573,14355
35.6778,13277
35.6983,14747
35.7188,14814
35.7393,13538
35.7598,14502
35.7803,14155
35.8008,14001
35.8212,13800
35.8417,14505
35.8622,14657
35.8827,13718
35.9032,14302
35.9237,14088
35.9442,13958
35.9647,14581
35.9852,15166
36.0057,14766
36.0262,14675
36.0467,14311
36.0671,15776
36.0876,15286
36.1081,13955
36.1286,15569
36.1491,15478
36.1696,16257
36.1901,15123
36.2106,15140
36.2311,15029
36.2516,16379
36.2721,15577
36.2925,15556
36.313,15962
36.3335,15262
36.354,15937
36.3745,16556
36.395,16416
36.4155,16488
36.436,15974
36.4565,15033
36.477,16964
36.4975,17948
36.5179,17197
36.5384,17018
36.5589,18026
36.5794,16909
36.5999,16993
36.6204,16625
36.6409,17699
36.6614,15908
36.6819,18018
36.7024,17422
36.7228,18392
36.7433,17921
36.7638,16637
36.7843,16707
36.8048,18222
36.8253,18582
36.8458,16563
36.8663,17387
36.8868,18282
36.9073,18467
36.9278,19863
36.9482,18733
36.9687,17826
36.9892,18144
37.0097,17163
37.0302,18096
37.0507,18380
37.0712,17268
37.0917,17876
37.1122,18628
37.1327,19942
37.1532,18506
37.1736,18371
37.1941,18980
37.2146,19733
37.2351,19399
37.2556,18079
37.2761,19538
37.2966,19330
37.3171,18847
37.3376,19010
37.358,19758
37.3786,20994
37.399,19372
37.4195,20525
37.44,22318
37.4605,20627
37.481,21785
37.5015,21465
37.522,21884
37.5425,20230
37.563,19498
37.5834,22378
37.604,20995
37.6244,20447
37.6449,21624
37.6654,20952
37.6859,20764
37.7064,22218
37.7269,23948
37.7474,23294
37.7679,23564
37.7884,22917
37.8089,23164
37.8293,21066
37.8498,21422
37.8703,22064
37.8908,22993
37.9113,23178
37.9318,22639
37.9523,22563
37.9728,23112
37.9933,23300
38.0138,21633
38.0343,24040
38.0547,24997
38.0752,24378
38.0957,22649
38.1162,24560
38.1367,22911
38.1572,24604
38.1777,24039
38.1982,24227
38.2187,24996
38.2392,25356
38.2597,24725
38.2801,25639
38.3006,26191
38.3211,27124
38.3416,26236
38.3621,24992
38.3826,26520
38.4031,26947
38.4236,28250
38.4441,26570
38.4646,26306
38.4851,27636
38.5055,27605
38.526,28261
38.5465,27558
38.567,26893
38.5875,28909
38.608,27767
38.6285,27822
38.649,27946
38.6695,29174
38.69,28654
38.7105,28503
38.7309,28241
38.7514,29326
38.7719,28584
38.7924,29781
38.8129,29607
38.8334,29561
38.8539,30379
38.8744,30456
38.8949,30369
38.9154,27732
38.9358,30936
38.9563,32131
38.9768,30413
38.9973,31836
39.0178,31269
39.0383,30701
39.0588,29405
39.0793,31910
39.0998,31903
39.1202,32231
39.1408,30875
39.1612,31680
39.1817,31894
39.2022,33772
39.2227,33193
39.2432,33118
39.2637,33552
39.2842,33016
39.3047,34715
39.3252,35605
39.3456,33053
39.3662,32972
39.3866,35503
39.4071,33911
39.4276,35710
39.4481,35837
39.4686,36097
39.4891,34042
39.5096,35038
39.5301,35333
39.5506,36195
39.5711,35892
39.5916,36741
39.612,36147
39.6325,36677
39.653,37195
39.6735,36532
39.694,37763
39.7145,36856
39.735,37406
39.7555,37653
39.776,38456
39.7965,40575
39.8169,39171
39.8374,38182
39.8579,38672
39.8784,39293
39.9298,38718
39.9402,42564
39.9506,40768
39.9611,40572
39.9715,42244
39.9819,40475
39.9923,39852
40.0027,41020
40.0131,41350
40.0235,41932
40.0339,41995
40.0443,45507
40.0547,43925
40.0652,43376
40.0756,42388
40.086,44503
40.0964,41276
40.1068,42246
40.1172,42911
40.1276,42674
40.138,42231
40.1485,43662
40.1589,44795
40.1693,44411
40.1797,44930
40.1901,43983
40.2005,43006
40.2109,43188
40.2213,46229
40.2318,45255
40.2422,42362
40.2526,45079
40.263,44048
40.2734,43427
40.2838,45678
40.2942,43091
40.3046,42866
40.315,43015
40.3255,43019
40.3359,45335
40.3463,44459
40.3567,46485
40.3671,44376
40.3775,45700
40.3879,45983
40.3983,46508
40.4088,46361
40.4192,46181
40.4296,48110
40.44,48040
40.4504,49686
40.4608,47244
40.4712,47494
40.4816,46534
40.492,47491
40.5025,46188
40.5129,48593
40.5233,49672
40.5337,49299
40.5441,49863
40.5545,47568
40.5649,47314
40.5753,49282
40.5858,49994
40.5962,48613
40.6066,50332
40.617,47980
40.6274,48950
40.6378,50862
40.6482,50430
40.6586,48250
40.669,49079
40.6795,50397
40.6899,52867
40.7003,49811
40.7107,49888
40.7211,50085
40.7315,50728
40.7419,51047
40.7523,51383
40.7628,52211
40.7732,51698
40.7836,49695
40.794,51953
40.8044,51011
40.8148,54368
40.8252,54241
40.8356,53273
40.846,52111
40.8565,53091
40.8669,52832
40.8773,53347
40.8877,54718
40.8981,53704
40.9085,54563
40.9189,56204
40.9293,54033
40.9397,54766
40.9502,57870
40.9606,57267
40.971,56280
40.9814,58311
40.9918,56020
41.0022,57343
41.0126,54084
41.023,55103
41.0335,54658
41.0439,56371
41.0543,55653
41.0647,54476
41.0751,56472
41.0855,56634
41.0959,55580
41.1063,58230
41.1167,55702
41.1272,56611
41.1376,59092
41.148,57309
41.1584,58105
41.1688,58403
41.1792,60135
41.1896,57809
41.2,60459
41.2105,62075
41.2208,60817
41.2313,62571
41.2417,59646
41.2521,57647
41.2625,60145
41.2729,59818
41.2833,58844
41.2937,61610
41.3042,61143
41.3146,59967
41.325,59792
41.3354,61797
41.3458,60476
41.3562,61488
41.3666,64054
41.377,62549
41.3875,63093
41.3979,63676
41.4083,63226
41.4187,62692
41.4291,64737
41.4395,62260
41.4499,65112
41.4603,64247
41.4707,63678
41.4812,62734
41.4916,64554
41.502,66843
41.5124,67427
41.5228,67101
41.5332,66955
41.5436,67884
41.554,65041
41.5645,67455
41.5749,68747
41.5853,68908
41.5957,66698
41.6061,67947
41.6165,68004
41.6269,70767
41.6373,69279
41.6477,67852
41.6581,68118
41.6686,70158
41.679,69385
41.6894,71132
41.6998,70017
41.7102,70420
41.7206,71425
41.731,70666
41.7415,70755
41.7519,72337
41.7623,74195
41.7727,73644
41.7831,71602
41.7935,72501
41.8039,72448
41.8143,74219
41.8247,75473
41.8351,75536
41.8456,75487
41.856,76936
41.8664,77617
41.8768,78551
41.8872,77567
41.8976,76258
41.908,75093
41.9184,75707
41.9289,78367
41.9393,76895
41.9497,77165
41.9601,78429
41.9705,78842
41.9809,77496
41.9913,80212
42.0017,80570
42.0122,79589
42.0226,80433
42.033,79998
42.0434,80845
42.0538,79832
42.0642,81616
42.0746,78919
42.085,80284
42.0954,84474
42.1059,81898
42.1163,82529
42.1267,82660
42.1371,84409
42.1475,82901
42.1579,83006
42.1683,83633
42.1787,84946
42.1892,85437
42.1996,86992
42.21,88903
42.2204,88317
42.2308,85743
42.2412,86023
42.2516,87307
42.262,87532
42.2724,86545
42.2829,87287
42.2933,87970
42.3037,87299
42.3141,89612
42.3245,88002
42.3349,87914
42.3453,91874
42.3557,88680
42.3662,90452
42.3766,92555
42.387,89605
42.3974,91997
42.4078,91712
42.4182,94541
42.4286,94400
42.439,91765
42.4494,94617
42.4599,95316
42.4703,94990
42.4807,95416
42.4911,95557
42.5015,97096
42.5119,95711
42.5223,98351
42.5327,101941
42.5432,98087
42.5536,99166
42.564,97623
42.5744,98568
42.5848,100361
42.5952,98384
42.6056,99060
42.616,98925
42.6264,97777
42.6369,99451
42.6473,98625
42.6577,99746
42.6681,101646
42.6785,102899
42.6889,102218
42.6993,103087
42.7097,104252
42.7201,104115
42.7306,105168
42.741,103689
42.7514,103670
42.7618,105387
42.7722,105062
42.7826,106644
42.793,105864
42.8034,107527
42.8139,107609
42.8242,108698
42.8347,107792
42.8451,106687
42.8555,109761
42.8659,108412
42.8763,110819
42.8867,113993
42.8971,110088
42.9076,112706
42.918,111400
42.9284,115998
42.9388,110217
42.9492,114291
42.9596,113150
42.97,113123
42.9804,113500
42.9909,119951
43.0012,115864
43.0117,120515
43.0221,120716
43.0325,118592
43.0429,116646
43.0533,116589
43.0637,115502
43.0741,118587
43.0846,119050
43.095,117833
43.1054,121355
43.1158,122740
43.1262,119577
43.1366,120737
43.147,120955
43.1574,122250
43.1679,123422
43.1783,125774
43.1887,125214
43.1991,125750
43.2095,126773
43.2199,127243
43.2303,125031
43.2407,125058
43.2511,128171
43.2616,129448
43.272,129066
43.2824,129572
43.2928,127626
43.3032,130104
43.3136,133362
43.324,131974
43.3344,131493
43.3449,133987
43.3553,133514
43.3657,134367
43.3761,133166
43.3865,132834
43.3969,134794
43.4073,134171
43.4177,136581
43.4281,137040
43.4385,136387
43.449,138442
43.4594,140370
43.4698,140262
43.4802,142435
43.4906,142445
43.501,142979
43.5114,145338
43.5218,143418
43.5323,143136
43.5427,144706
43.5531,141925
43.5635,145989
43.5739,142336
43.5843,144815
43.5947,149508
43.6051,146907
43.6155,144884
43.626,148644
43.6364,149267
43.6468,148228
43.6572,147005
43.6676,149785
43.678,151250
43.6884,151565
43.6988,153274
43.7093,150912
43.7197,153229
43.7301,157053
43.7405,158319
43.7509,160201
43.7613,155519
43.7717,161023
43.7821,159252
43.7926,158775
43.803,162919
43.8134,159417
43.8238,163183
43.8342,160866
43.8446,165198
43.855,163295
43.8654,169321
43.8758,170234
43.8863,166963
43.8967,164778
43.9071,168536
43.9175,170974
43.9279,170980
43.9383,172987
43.9487,175376
43.9591,171288
43.9696,176186
43.98,176690
43.9904,174873
44.0008,177349
44.0112,176350
44.0216,177145
44.032,178386
44.0424,181414
44.0528,181030
44.0633,181702
44.0737,185295
44.0841,183192
44.0945,183666
44.1049,185565
44.1153,187244
44.1257,186874
44.1361,186359
44.1466,187954
44.157,185221
44.1674,189781
44.1778,191126
44.1882,188207
44.1986,195080
44.209,194443
44.2194,195497
44.2298,199840
44.2403,197162
44.2507,198201
44.2611,203630
44.2715,200219
44.2819,203230
44.2923,200702
44.3027,202178
44.3131,201936
44.3236,203317
44.334,205926
44.3444,210395
44.3548,205959
44.3652,204848
44.3756,207763
44.386,212927
44.3964,211033
44.4068,211223
44.4173,213460
44.4277,213423
44.4381,216165
44.4485,214990
44.4589,218272
44.4693,216488
44.4797,215761
44.4901,218266
44.5005,222510
44.511,224135
44.5214,220036
44.5318,222394
44.5422,227784
44.5526,228757
44.563,226076
44.5734,225550
44.5838,226223
44.5943,226744
44.6046,230851
44.6151,228149
44.6255,232129
44.6359,232281
44.6463,238331
44.6567,236559
44.6671,233897
44.6775,237917
44.688,241207
44.6984,239534
44.7088,233205
44.7192,237458
44.7296,241756
44.74,244309
44.7504,242006
44.7608,244658
44.7713,252380
44.7816,253613
44.7921,249161
44.8025,256268
44.8129,248432
44.8233,251661
44.8337,255865
44.8441,253620
44.8545,255982
44.865,258926
44.8754,257824
44.8858,260015
44.8962,259826
44.9066,257945
44.917,260864
44.9274,266654
44.9378,266327
44.9483,269318
44.9586,270671
44.9691,270692
44.9795,272850
44.9899,276147
45.0003,277231
45.0107,272720
45.0211,278559
45.0315,277315
45.042,281947
45.0524,279006
45.0628,277530
45.0732,281565
45.0836,283484
45.094,284193
45.1044,283857
45.1148,283124
45.1253,286868
45.1357,287525
45.1461,288915
45.1565,293714
45.1669,292714
45.1773,295620
45.1877,298046
45.1981,299681
45.2085,299869
45.219,297949
45.2294,299515
45.2398,302790
45.2502,305523
45.2606,303755
45.271,306020
45.2814,308581
45.2918,314281
45.3022,312837
45.3127,317656
45.3231,312110
45.3335,319731
45.3439,314685
45.3543,317276
45.3647,320628
45.3751,318810
45.3855,320548
45.3959,323093
45.4064,327161
45.4168,324019
45.4272,332030
45.4376,325446
45.448,330916
45.4584,328888
45.4688,336926
45.4792,336443
45.4897,338741
45.5001,342481
45.5105,342885
45.5209,339534
45.5313,345904
45.5417,342343
45.5521,344603
45.5625,349633
45.5729,346802
45.5834,352910
45.5938,351194
45.6042,355982
45.6146,360843
45.625,358952
45.6354,362840
45.6458,358839
45.6562,364627
45.6667,368308
45.6771,369533
45.6875,367905
45.6979,371930
45.7083,376735
45.7187,371244
45.7291,371899
45.7395,384017
45.75,381581
45.7604,381299
45.7708,385789
45.7812,385620
45.7916,386458
45.802,390099
45.8124,396603
45.8228,396574
45.8332,393114
45.8437,391844
45.8541,394778
45.8645,395881
45.8749,399473
45.8853,399272
45.8957,402472
45.9061,404133
45.9165,411301
45.927,411875
45.9374,417380
45.9478,415484
45.9582,417576
45.9686,421381
45.979,418480
45.9894,420398
45.9998,424096
46.0102,421093
46.0207,428197
46.0311,440093
46.0415,433094
46.0519,428156
46.0623,437358
46.0727,440253
46.0831,436709
46.0935,445958
46.1039,444755
46.1144,446312
46.1248,449110
46.1352,447619
46.1456,454858
46.156,449022
46.1664,452597
46.1768,460397
46.1872,464368
46.1977,461422
46.2081,465086
46.2185,464141
46.2289,475002
46.2393,477096
46.2497,472032
46.2601,475887
46.2705,477416
46.2809,478565
46.2914,483609
46.3018,479270
46.3122,483081
46.3226,491907
46.333,500327
46.3434,492123
46.3538,500021
46.3642,503094
46.3747,502863
46.3851,510994
46.3955,507229
46.4059,507988
46.4163,510546
46.4267,516862
46.4371,519529
46.4475,514931
46.4579,524651
46.4684,520198
46.4788,527432
46.4892,526161
46.4996,531903
46.51,535812
46.5204,538828
46.5308,537431
46.5412,539616
46.5517,542061
46.562,539434
46.5725,549334
46.5829,552361
46.5933,556871
46.6037,560032
46.6141,564823
46.6245,562161
46.6349,572354
46.6454,563820
46.6558,572032
46.6662,574955
46.6766,574836
46.687,585084
46.6974,577117
46.7078,593274
46.7182,592692
46.7287,599751
46.739,590917
46.7495,593792
46.7599,604632
46.7703,598084
46.7807,598517
46.7911,607770
46.8015,611144
46.8119,605413
46.8224,622131
46.8328,621103
46.8432,625308
46.8536,622203
46.864,624298
46.8744,631185
46.8848,624977
46.8952,642738
46.9056,641493
46.9161,642183
46.9265,646167
46.9369,646827
46.9473,658221
46.9577,664124
46.9681,667252
46.9785,658058
46.9889,657739
46.9994,663349
47.0098,667619
47.0202,665737
47.0306,672126
47.041,669220
47.0514,674376
47.0618,680532
47.0722,691246
47.0826,698284
47.0931,681774
47.1035,695422
47.1139,706399
47.1243,696463
47.1347,701460
47.1451,701392
47.1555,709303
47.1659,713192
47.1763,716923
47.1868,729664
47.1972,724983
47.2076,727860
47.218,730370
47.2284,730542
47.2388,741149
47.2492,744918
47.2596,744875
47.2701,746248
47.2805,757564
47.2909,751921
47.3013,758205
47.3117,764024
47.3221,762940
47.3325,768013
47.3429,771656
47.3533,773479
47.3638,776023
47.3742,790812
47.3846,791670
47.395,790061
47.4054,792158
47.4158,794724
47.4262,803059
47.4366,799840
47.4471,810734
47.4575,814248
47.4679,823426
47.4783,815638
47.4887,816230
47.4991,819646
47.5095,836050
47.5199,841964
47.5304,843299
47.5408,833422
47.5512,840147
47.5616,834121
47.572,839512
47.5824,837183
47.5928,828278
47.6032,829411
47.6136,833625
47.6241,836069
47.6345,824911
47.6449,838731
47.6553,851168
47.6657,853644
47.6761,854841
47.6865,853003
47.6969,851196
47.7074,857944
47.7178,863559
47.7282,857127
47.7386,862256
47.749,872526
47.7594,866137
47.7698,872731
47.7802,870654
47.7906,880792
47.8011,887649
47.8115,883024
47.8219,879604
47.8323,881751
47.8427,888804
47.8531,887783
47.8635,888983
47.8739,891059
47.8843,899125
47.8948,893763
47.9052,900797
47.9156,897738
47.926,895762
47.9364,907360
47.9468,908155
47.9572,916140
47.9676,923088
47.9781,918348
47.9885,913556
47.9989,910090
48.0093,913624
48.0197,923076
48.0301,918731
48.0405,924284
48.0509,923924
48.0613,924345
48.0718,921942
48.0822,925269
48.0926,933668
48.103,932265
48.1134,935171
48.1238,945659
48.1342,945811
48.1446,942214
48.1551,943357
48.1655,940753
48.1759,945806
48.1863,943916
48.1967,950882
48.2071,943816
48.2175,950507
48.2279,952904
48.2383,961170
48.2488,960884
48.2592,963372
48.2696,962256
48.28,960369
48.2904,974958
48.3008,968501
48.3112,974156
48.3216,967289
48.3321,959719
48.3424,976720
48.3529,977574
48.3633,971431
48.3737,967542
48.3841,978091
48.3945,986951
48.4049,980164
48.4153,979353
48.4258,986368
48.4362,993242
48.4466,980993
48.457,982450
48.4674,998525
48.4778,1001876
48.4882,992695
48.4986,1004560
48.5091,994217
48.5194,1009482
48.5299,998594
48.5403,996689
48.5507,1016290
48.5611,1005589
48.5715,1014828
48.5819,1017891
48.5923,1014658
48.6028,1014032
48.6132,1015331
48.6236,998172
48.634,1003194
48.6444,1020562
48.6548,1005698
48.6652,1013072
48.6756,1012227
48.686,1021152
48.6965,1025921
48.7069,1009847
48.7173,1014151
48.7277,1010378
48.7381,1015378
48.7485,1020981
48.7589,1018994
48.7693,1022124
48.7798,1022447
48.7902,1026497
48.8006,1026705
48.811,1030122
48.8214,1032154
48.8318,1032248
48.8422,1034467
48.8526,1029387
48.863,1027477
48.8735,1024522
48.8839,1038822
48.8943,1040485
48.9047,1038253
48.9151,1041019
48.9255,1042710
48.9359,1042351
48.9463,1052657
48.9568,1049405
48.9672,1046023
48.9776,1039965
48.988,1032723
48.9984,1037283
49.0088,1038575
49.0192,1048425
49.0296,1046835
49.04,1047030
49.0505,1050069
49.0609,1052771
49.0713,1052368
49.0817,1049177
49.0921,1062156
49.1025,1043721
49.1129,1059796
49.1233,1055794
49.1337,1056029
49.1442,1050864
49.1546,1043456
49.165,1061621
49.1754,1060906
49.1858,1064081
49.1962,1064380
49.2066,1070734
49.217,1066538
49.2275,1058888
49.2379,1062009
49.2483,1075494
49.2587,1065069
49.2691,1058374
49.2795,1065120
49.2899,1062297
49.3003,1067043
49.3108,1073365
49.3212,1073389
49.3316,1065420
49.342,1070998
49.3524,1065513
49.3628,1070687
49.3732,1073085
49.3836,1082934
49.394,1076672
49.4045,1081225
49.4149,1082016
49.4253,1077138
49.4357,1072404
49.4461,1077204
49.4565,1080663
49.4669,1080712
49.4773,1074399
49.4877,1072706
49.4982,1073682
49.5086,1066177
49.519,1073988
49.5294,1084373
49.5398,1082068
49.5502,1078996
49.5606,1082359
49.571,1081690
49.5815,1076566
49.5919,1085260
49.6023,1092962
49.6127,1085319
49.6231,1085205
49.6335,1076853
49.6439,1084725
49.6543,1093421
49.6647,1083032
49.6752,1084666
49.6856,1098897
49.696,1094394
49.7064,1086464
49.7168,1083955
49.7272,1085844
49.7376,1085594
49.748,1087423
49.7585,1088784
49.7689,1084187
49.7793,1080971
49.7897,1089349
49.8001,1095392
49.8105,1100379
49.8209,1101972
49.8313,1092579
49.8417,1096432
49.8522,1095594
49.8626,1089368
49.873,1089162
49.8834,1095989
49.8938,1088770
49.9042,1092782
49.9146,1091573
49.925,1089188
49.9355,1088224
49.9459,1089682
49.9563,1093310
49.9667,1081979
49.9771,1104509
49.9875,1094171
49.9979,1096937
50.0083,1096819
50.0187,1089412
50.0292,1106021
50.0396,1093474
50.05,1101937
50.0604,1090447
50.0708,1097661
50.0812,1095376
50.0916,1104885
50.102,1102213
50.1125,1095536
50.1229,1101844
50.1333,1099064
50.1437,1098118
50.1541,1097322
50.1645,1093379
50.1749,1093660
50.1853,1101661
50.1957,1099753
50.2062,1099000
50.2166,1088652
50.227,1100555
50.2374,1095151
50.2478,1102065
50.2582,1098882
50.2686,1097414
50.279,1098866
50.2894,1093248
50.2998,1103537
50.3103,1115745
50.3207,1116309
50.3311,1101981
50.3415,1109438
50.3519,1111043
50.3623,1112865
50.3727,1111819
50.3832,1114432
50.3936,1111787
50.404,1110360
50.4144,1121611
50.4248,1117373
50.4352,1115149
50.4456,1120664
50.456,1113583
50.4664,1114292
50.4768,1100929
50.4873,1101282
50.4977,1124322
50.5081,1113145
50.5185,1111266
50.5289,1119419
50.5393,1106527
50.5497,1100801
50.5602,1106444
50.5706,1107565
50.581,1112774
50.5914,1112685
50.6018,1114315
50.6122,1101750
50.6226,1107452
50.633,1110645
50.6434,1108798
50.6539,1121535
50.6643,1121069
50.6747,1112611
50.6851,1120208
50.6955,1111724
50.7059,1118761
50.7163,1118901
50.7267,1118672
50.7372,1120047
50.7476,1122690
50.758,1116881
50.7684,1117983
50.7788,1113815
50.7892,1118868
50.7996,1128340
50.81,1120512
50.8204,1130757
50.8309,1123205
50.8413,1127899
50.8517,1114567
50.8621,1117324
50.8725,1136220
50.8829,1122733
50.8933,1124712
50.9037,1129445
50.9141,1136716
50.9246,1127332
50.935,1122390
50.9454,1123651
50.9558,1126727
50.9662,1124244
50.9766,1128209
50.987,1114195
50.9974,1117242
51.0079,1122123
51.0183,1122781
51.0287,1121340
51.0391,1128809
51.0495,1127095
51.0599,1131167
51.0703,1123911
51.0807,1121228
51.0911,1116663
51.1016,1125119
51.112,1117246
51.1224,1113984
51.1328,1124686
51.1432,1123658
51.1536,1117869
51.164,1136445
51.1744,1123516
51.1849,1115263
51.1953,1133335
51.2057,1132045
51.2161,1131142
51.2265,1131714
51.2369,1131420
51.2473,1131194
51.2577,1117025
51.2681,1123711
51.2786,1123740
51.289,1126257
51.2994,1126062
51.3098,1143313
51.3202,1141361
51.3306,1130755
51.341,1132385
51.3514,1132980
51.3619,1129274
51.3723,1129224
51.3827,1119827
51.3931,1131890
51.4035,1143076
51.4139,1136853
51.4243,1131731
51.4347,1138112
51.4451,1127650
51.4556,1143914
51.466,1147649
51.4764,1140665
51.4868,1133099
51.4972,1136447
51.5076,1132893
51.518,1139081
51.5284,1136523
51.5389,1151623
51.5493,1127651
51.5597,1128261
51.5701,1139233
51.5805,1142865
51.5909,1137223
51.6013,1148527
51.6117,1141036
51.6221,1136668
51.6326,1141209
51.643,1149980
51.6534,1133512
51.6638,1138946
51.6742,1137867
51.6846,1141717
51.695,1140466
51.7054,1138304
51.7159,1136986
51.7263,1139395
51.7367,1147938
51.7471,1150727
51.7575,1143284
51.7679,1147272
51.7783,1152798
51.7887,1145580
51.7991,1148340
51.8096,1144965
51.82,1139282
51.8304,1148724
51.8408,1138738
51.8512,1146351
51.8616,1152650
51.872,1142267
51.8824,1140338
51.8929,1144954
51.9033,1137639
51.9137,1141961
51.9241,1144867
51.9345,1146956
51.9449,1139461
51.9553,1148859
51.9657,1134089
51.9761,1133984
51.9866,1146951
51.997,1136375
52.0074,1151502
52.0178,1139298
52.0282,1142476
52.0386,1144627
52.049,1136014
52.0594,1140358
52.0698,1138310
52.0802,1144336
52.0907,1148686
52.1011,1148301
52.1115,1153508
52.1219,1148999
52.1323,1134632
52.1427,1154867
52.1531,1153967
52.1636,1154203
52.174,1155597
52.1844,1160451
52.1948,1146911
52.2052,1158416
52.2156,1155527
52.226,1157326
52.2364,1153864
52.2468,1153304
52.2572,1147880
52.2677,1165845
52.2781,1172338
52.2885,1157590
52.2989,1155332
52.3093,1154029
52.3197,1155137
52.3301,1154647
52.3406,1150283
52.351,1152959
52.3614,1161152
52.3718,1160541
52.3822,1155914
52.3926,1148693
52.403,1156678
52.4134,1158402
52.4238,1161488
52.4343,1156285
52.4447,1148263
52.4551,1158856
52.4655,1139330
52.4759,1156093
52.4863,1150778
