C:\MSDCHEM\1\DATA\20150910HYDE\150910Hyde058.d 16 Sep 15  12:23 am
Start of data points
2.10983,22355
2.132,21339
2.15418,19158
2.17635,20462
2.19853,18146
2.2207,17800
2.24288,17877
2.26507,17678
2.28723,17820
2.30942,16380
2.33158,17015
2.35377,16301
2.37595,14879
2.39812,16668
2.4203,15522
2.44247,15195
2.46465,14182
2.48682,14766
2.509,16078
2.53118,16113
2.55335,15352
2.57553,16194
2.5977,15793
2.61988,13784
2.64207,14942
2.66423,14587
2.68642,13791
2.70858,14195
2.73077,15205
2.75293,15344
2.77512,13994
2.7973,14525
2.81947,13863
2.84165,13263
2.86382,13147
2.886,13323
2.90818,14109
2.93035,13692
2.95253,14948
2.9747,13532
2.99688,13476
3.01905,12783
3.04123,14188
3.06342,13998
3.08558,12996
3.10777,12637
3.12993,12642
3.15212,13264
3.1743,13616
3.19647,13474
3.21865,12257
3.24082,12271
3.263,12659
3.28517,12126
3.30735,12912
3.32953,12935
3.3517,11693
3.37388,11341
3.39605,12529
3.41823,11799
3.44042,11819
3.46258,12068
3.48477,12785
3.50693,12226
3.52912,10912
3.55128,12556
3.57347,11336
3.59565,12015
3.61782,11854
3.64,12153
3.66217,10490
3.68435,11436
3.70653,12909
3.7287,12309
3.75088,11638
3.77305,11039
3.79523,10789
3.8174,11550
3.83958,11677
3.86177,11397
3.88393,10642
3.90612,11150
3.92828,10555
3.95047,10961
3.97265,10541
3.99482,10981
4.017,10823
4.03917,10080
4.06135,9825
4.08353,10701
4.1057,10325
4.12788,10970
4.15005,11094
4.17223,9633
4.1944,10461
4.21658,10258
4.23877,10260
4.26093,10513
4.28312,9613
4.30528,10427
4.32747,11418
4.34965,12400
4.37182,15924
4.394,29231
4.41617,76702
4.43835,115753
4.46052,91805
4.4827,53653
4.50488,35070
4.52705,28414
4.54923,25673
4.5714,23888
4.59358,24945
4.61577,30009
4.63793,35891
4.66012,30186
4.68228,22770
4.70447,20121
4.72663,16384
4.74882,15717
4.771,16332
4.79317,13654
4.81535,13082
4.83752,15379
4.8597,13885
4.88188,13179
4.90405,12330
4.92623,12236
4.9484,12740
4.97058,11827
4.99275,11114
5.01493,11972
5.03712,11411
5.05928,11069
5.08147,11066
5.10363,9771
5.12582,9943
5.148,10399
5.17017,10697
5.19235,9693
5.21452,11489
5.2367,11214
5.25887,9949
5.28105,10409
5.30323,9568
5.3254,8908
5.34758,10701
5.36975,10810
5.39193,10569
5.41412,9685
5.43628,9823
5.45847,9303
5.48063,9226
5.50282,9258
5.52498,10018
5.54717,8768
5.56935,8994
5.59152,8516
5.6137,8265
5.63587,8537
5.65805,9278
5.68023,11209
5.7024,13756
5.72458,15901
5.74675,15645
5.76893,12311
5.7911,11049
5.81328,10983
5.83547,12459
5.85763,12811
5.87982,10565
5.90198,10542
5.92417,8296
5.94635,7900
5.96852,8530
5.9907,8020
6.01287,7967
6.03505,7849
6.05722,7606
6.0794,8594
6.10158,7989
6.12375,7500
6.14593,7931
6.1681,8709
6.19028,7493
6.21247,7948
6.23463,7033
6.25682,8578
6.27898,9511
6.30117,12548
6.32335,14671
6.34552,11054
6.3677,9340
6.38987,8456
6.41205,6938
6.43422,6947
6.4564,6814
6.47858,7365
6.50075,9658
6.52293,16182
6.5451,25333
6.56728,23372
6.58947,17283
6.61163,13270
6.63382,9934
6.65598,8439
6.67817,8666
6.70033,9039
6.72252,7641
6.7447,7711
6.76687,6396
6.78905,7166
6.81122,6699
6.8334,7254
6.85558,7542
6.87775,7496
6.89993,7190
6.9221,6767
6.94428,7368
6.96645,7380
6.98863,7030
7.01082,7197
7.03298,7652
7.05517,7653
7.07733,7728
7.09952,5974
7.1217,6101
7.14387,6495
7.16605,6939
7.18822,7004
7.2104,7508
7.23257,7612
7.25475,6788
7.27693,6501
7.3384,7609
7.35553,7636
7.37267,6973
7.38978,7005
7.40692,6222
7.42403,5940
7.44117,6496
7.4583,6152
7.47542,5936
7.49255,6166
7.50968,5799
7.5268,6238
7.54393,6123
7.56105,8016
7.57818,9754
7.59532,10314
7.61243,11525
7.62957,9323
7.64668,9155
7.66382,7692
7.68095,7136
7.69807,7202
7.7152,7034
7.73232,6647
7.74945,5403
7.76658,6460
7.7837,6952
7.80083,6585
7.81797,6779
7.83508,6539
7.85222,6511
7.86933,6039
7.88647,6595
7.9036,5849
7.92072,6139
7.93785,5200
7.95497,5724
7.9721,5915
7.98923,5939
8.00635,5612
8.02348,5838
8.04062,5576
8.05773,6637
8.07487,5055
8.09198,5246
8.10912,5335
8.12625,7046
8.14337,5902
8.1605,4596
8.17762,5625
8.19475,5438
8.21188,5556
8.229,5163
8.24613,5161
8.26325,6548
8.28038,7369
8.29752,6668
8.31463,6512
8.33177,6751
8.3489,6654
8.36602,5893
8.38315,5763
8.40027,5309
8.4174,5195
8.43453,5120
8.45165,5449
8.46878,5883
8.4859,5187
8.50303,5102
8.52017,6055
8.53728,5350
8.55442,4742
8.57155,5619
8.58867,4953
8.6058,4746
8.62292,4798
8.64005,5518
8.65718,5531
8.6743,5600
8.69143,4774
8.70855,4993
8.72568,5170
8.74282,4842
8.75993,5662
8.77707,5197
8.79418,5162
8.81132,4216
8.82845,5561
8.84557,4546
8.8627,5121
8.87983,4517
8.89695,4957
8.91408,3939
8.9312,4827
8.94833,4804
8.96547,4815
8.98258,4399
8.99972,4949
9.01683,4412
9.03397,4615
9.0511,4743
9.06822,4814
9.08535,4131
9.10248,4501
9.1196,5011
9.13673,4038
9.15385,5345
9.17098,6570
9.18812,7960
9.20523,9018
9.22237,9749
9.23948,8001
9.25662,6440
9.27375,5659
9.29087,4063
9.308,5035
9.32512,4969
9.34225,5264
9.35938,5092
9.3765,4613
9.39363,4925
9.41077,3821
9.42788,5130
9.44502,4226
9.46213,4451
9.47927,4557
9.4964,4264
9.51352,3694
9.53065,3720
9.54777,4493
9.5649,4658
9.58203,4814
9.59915,5346
9.61628,5451
9.63342,4308
9.65053,5590
9.66767,5615
9.68478,9115
9.70192,21445
9.71905,49526
9.73617,91776
9.7533,128663
9.77042,132214
9.78755,106560
9.80468,63198
9.8218,35205
9.83893,17919
9.85605,11300
9.87318,9319
9.89032,7444
9.90743,6835
9.92457,6655
9.9417,6789
9.95882,7290
9.97595,7501
9.99307,6281
10.0102,5957
10.0273,5074
10.0445,5248
10.0616,5180
10.0787,4804
10.0958,4506
10.113,5123
10.1301,5386
10.1472,4605
10.1644,4435
10.1815,4829
10.1986,4593
10.2157,4957
10.2329,4531
10.25,4305
10.2671,3877
10.2842,3612
10.3014,4267
10.3185,4871
10.3356,4328
10.3527,4481
10.3699,5057
10.387,4521
10.4041,5225
10.4213,5061
10.4384,4943
10.4555,4065
10.4726,5081
10.4898,4432
10.5069,4066
10.524,3374
10.5411,3906
10.5583,3540
10.5754,3854
10.6301,3760
10.6506,4443
10.6711,4485
10.6916,5028
10.7121,4388
10.7326,5325
10.7531,4781
10.7735,3889
10.794,3712
10.8145,3999
10.835,3490
10.8555,4644
10.876,4513
10.8965,4686
10.9169,5440
10.9374,7261
10.9579,8617
10.9784,9576
10.9989,7815
11.0194,8428
11.0399,7209
11.0604,6596
11.0808,5694
11.1013,5270
11.1218,5259
11.1423,4778
11.1628,4997
11.1833,4699
11.2038,5735
11.2242,7439
11.2447,10654
11.2652,10299
11.2857,8382
11.3062,6801
11.3267,4854
11.3472,4621
11.3676,3946
11.3881,3573
11.4086,3783
11.4291,3369
11.4496,3473
11.4701,3971
11.4906,4153
11.5111,4084
11.5315,3810
11.552,5570
11.5725,11194
11.593,24164
11.6135,40797
11.634,46215
11.6545,36529
11.6749,21360
11.6954,9990
11.7159,7553
11.7364,5612
11.7569,4160
11.7774,4485
11.7979,4528
11.8184,4370
11.8388,4254
11.8593,3931
11.8798,4059
11.9003,3603
11.9208,3895
11.9413,4628
11.9618,3797
11.9822,3726
12.0027,3654
12.0232,4820
12.0437,4617
12.0642,5014
12.0847,4978
12.1052,5313
12.1256,5189
12.1461,5363
12.1666,5842
12.1871,5467
12.2076,5806
12.2281,5714
12.2486,5460
12.2691,5757
12.2895,6182
12.31,6028
12.3305,5462
12.351,4850
12.3715,4712
12.392,4214
12.4125,4826
12.4329,4645
12.4534,4277
12.4739,4261
12.4944,3437
12.5149,4403
12.5354,4194
12.5559,4097
12.5764,4166
12.5968,3732
12.6173,4109
12.6378,3879
12.6583,3814
12.6788,4237
12.6993,4268
12.7198,4401
12.7402,3703
12.7607,3714
12.7812,3924
12.8017,4241
12.8222,3829
12.8427,4500
12.8632,3486
12.8836,4223
12.9041,3634
12.9246,3901
12.9451,4943
12.9656,3804
12.9861,4424
13.0066,4127
13.0271,4649
13.0475,4323
13.068,3691
13.0885,4603
13.109,4318
13.1295,4375
13.15,4479
13.1705,4118
13.1909,3824
13.2114,3877
13.2319,3609
13.2524,3489
13.2729,3239
13.2934,3760
13.3139,3439
13.3343,3264
13.3548,3973
13.3753,3687
13.3958,2950
13.4163,3605
13.4368,3930
13.4573,4161
13.4778,5361
13.4982,6222
13.5187,6226
13.5392,6114
13.5597,5387
13.5802,5107
13.6007,3856
13.6212,3614
13.6416,3948
13.6621,3484
13.6826,3806
13.7031,3319
13.7236,3141
13.7441,3694
13.7646,3392
13.7851,3830
13.8055,3971
13.826,3603
13.8465,3662
13.867,3934
13.8875,4106
13.908,3553
13.9285,3426
13.9489,3204
13.9694,3195
13.9899,3636
14.0104,3876
14.0309,3375
14.0514,3073
14.0719,3109
14.0923,3632
14.1128,4908
14.1333,4353
14.1538,3736
14.1743,2997
14.1948,3236
14.2153,3563
14.2358,3537
14.2562,3372
14.2767,3581
14.2972,3751
14.3177,3817
14.3382,3146
14.3587,3425
14.3792,3552
14.3996,4211
14.4201,4736
14.4406,4178
14.4611,4617
14.4816,4444
14.5021,4476
14.5226,4136
14.5431,4441
14.5635,4207
14.584,3679
14.6045,3877
14.625,3524
14.6455,2852
14.666,2907
14.6865,3668
14.7069,3765
14.7274,3118
14.7479,4020
14.7684,4141
14.7889,4787
14.8094,3556
14.8299,3369
14.8503,3075
14.8708,3734
14.8913,4146
14.9118,3321
14.9323,4228
14.9528,3620
14.9733,3990
14.9938,3687
15.0142,3426
15.0347,2937
15.0552,3568
15.0757,3636
15.0962,3807
15.1167,4073
15.1372,3603
15.1576,4069
15.1781,3753
15.1986,3050
15.2191,2484
15.2396,3392
15.2601,3333
15.2806,3779
15.3011,3606
15.3215,3484
15.342,3258
15.3625,3674
15.383,3921
15.4035,3537
15.424,3650
15.4445,3618
15.4649,3716
15.4854,3826
15.5059,3728
15.5264,3928
15.5469,3268
15.5674,3724
15.5879,4813
15.6083,10325
15.6288,24230
15.6493,43615
15.6698,63541
15.6903,60106
15.7108,45931
15.7313,27705
15.7518,16823
15.7722,11243
15.7927,8274
15.8132,7122
15.8337,6063
15.8542,6545
15.8747,5774
15.8952,4917
15.9156,5200
15.9361,4883
15.9566,5000
15.9771,4311
15.9976,4083
16.0181,4276
16.0386,3503
16.059,4142
16.0795,4388
16.1,4018
16.1205,4202
16.141,4605
16.1615,5728
16.182,5011
16.2024,5781
16.2229,4665
16.2434,5392
16.2639,4062
16.2844,4694
16.3049,4303
16.3254,4061
16.3458,3350
16.3663,4220
16.3868,3804
16.4073,3906
16.4278,4111
16.4483,4651
16.4688,4148
16.4893,4400
16.5098,4374
16.5302,5754
16.5507,6802
16.5712,6456
16.5917,4870
16.6122,4597
16.6327,4405
16.6532,4273
16.6736,3835
16.6941,4802
16.7146,4134
16.7351,4271
16.7556,3675
16.7761,4225
16.7966,3822
16.817,4252
16.8375,4767
16.858,3552
16.8785,3563
16.899,3206
16.9195,3520
16.94,4131
16.9605,4129
16.9809,4061
17.0014,3215
17.0219,3740
17.0424,3142
17.0629,3015
17.0834,4308
17.1039,3614
17.1243,3712
17.1448,4182
17.1653,5402
17.1858,5689
17.2063,5460
17.2268,4962
17.2473,5257
17.2677,4398
17.2882,5003
17.3087,3820
17.3292,3302
17.3497,3471
17.3702,3832
17.3907,4051
17.4111,3761
17.4316,4010
17.4521,3324
17.4726,4101
17.4931,4320
17.5136,3239
17.5341,4499
17.5546,4300
17.575,3390
17.5955,3574
17.616,4220
17.6365,3565
17.657,3309
17.6775,4160
17.698,3349
17.7185,2911
17.7389,3667
17.7594,3525
17.7799,3506
17.8363,3585
17.8518,4176
17.8672,4680
17.8827,4174
17.8981,3886
17.9136,4011
17.929,4182
17.9444,4497
17.9599,4002
17.9753,3691
17.9908,3577
18.0062,3741
18.0217,4432
18.0371,4464
18.0526,4049
18.068,5205
18.0834,5076
18.0989,5145
18.1143,4383
18.1298,4754
18.1452,5409
18.1607,6679
18.1761,9102
18.1915,13990
18.207,17398
18.2225,21228
18.2379,20239
18.2533,17374
18.2688,14422
18.2842,13360
18.2997,11460
18.3151,8888
18.3306,8832
18.346,7028
18.3615,7014
18.3769,7589
18.3924,7433
18.4078,6666
18.4232,7094
18.4387,4885
18.4541,5332
18.4696,5597
18.485,5218
18.5005,5206
18.5159,4767
18.5314,4529
18.5468,5368
18.5622,4616
18.5777,5032
18.5931,4742
18.6086,5232
18.624,4989
18.6395,5858
18.6549,5094
18.6704,5261
18.6858,5378
18.7012,5433
18.7167,5194
18.7321,4394
18.7476,5084
18.763,4946
18.7785,5153
18.7939,4201
18.8094,4726
18.8248,3999
18.8403,4632
18.8557,4188
18.8711,3964
18.8866,3538
18.902,3809
18.9175,4946
18.9329,4010
18.9484,4185
18.9638,4689
18.9793,3963
18.9947,4025
19.0101,4284
19.0256,3499
19.041,4153
19.0565,4493
19.0719,4984
19.0874,4722
19.1028,6122
19.1183,4422
19.1337,4895
19.1492,4362
19.1646,4187
19.18,3709
19.1955,4761
19.2109,5007
19.2264,3797
19.2418,3756
19.2573,3422
19.2727,3604
19.2882,4315
19.3036,3931
19.319,4513
19.3345,4304
19.3499,3859
19.3654,3621
19.3808,3842
19.3963,3706
19.4117,4349
19.4272,3985
19.4426,3644
19.4581,4221
19.4735,3532
19.4889,3727
19.5044,3708
19.5198,3758
19.5353,4167
19.5507,4301
19.5662,4003
19.5816,3995
19.597,4157
19.6125,4022
19.6279,4529
19.6434,3670
19.6588,3580
19.6743,3246
19.6897,3603
19.7052,3962
19.7206,3480
19.7361,3680
19.7515,3686
19.767,4147
19.7824,4664
19.7978,5182
19.8133,4010
19.8287,4380
19.8442,3953
19.8596,4115
19.8751,5068
19.8905,4106
19.906,3851
19.9214,4197
19.9368,3895
19.9523,3381
19.9677,3791
19.9832,3770
19.9986,3853
20.0141,3163
20.0295,3823
20.045,3265
20.0604,3639
20.0759,3858
20.0913,3444
20.1067,3794
20.1222,4792
20.1376,3569
20.1531,3193
20.1685,3140
20.1839,3695
20.1994,3959
20.2149,3918
20.2303,3243
20.2457,3508
20.2612,3876
20.2766,3502
20.2921,3942
20.3075,3728
20.323,4050
20.3384,3586
20.3539,4049
20.3693,3931
20.3847,3370
20.4002,4245
20.4156,3713
20.4311,4122
20.4465,4885
20.462,4834
20.4774,4848
20.4929,4641
20.5083,5199
20.5238,5040
20.5392,4363
20.5546,4509
20.5701,4680
20.5855,4323
20.601,5298
20.6164,3656
20.6319,3846
20.6473,3841
20.6628,4364
20.6782,4084
20.6936,4239
20.7091,4588
20.7245,4523
20.74,4517
20.7554,4012
20.7709,3737
20.7863,3806
20.8018,2885
20.8172,3544
20.8327,3363
20.8481,5105
20.8635,4156
20.879,4582
20.8944,3835
20.9099,4216
20.9253,4230
20.9408,3713
20.9562,3983
20.9717,4009
20.9871,4038
21.0025,3583
21.018,4021
21.0334,3479
21.0489,3886
21.0643,3322
21.0798,3970
21.0952,4181
21.1107,3942
21.1261,4069
21.1416,4736
21.157,3864
21.1724,4216
21.1879,3823
21.2033,4024
21.2188,3787
21.2342,3810
21.2497,4342
21.2651,4012
21.2806,3513
21.296,3955
21.3114,4291
21.3269,3816
21.3423,3919
21.3578,3502
21.3732,4960
21.3887,4123
21.4041,3653
21.4196,4214
21.435,4151
21.4505,3957
21.4659,4147
21.4813,3838
21.4968,4171
21.5122,3781
21.5277,3832
21.5431,3838
21.5586,5027
21.574,5722
21.5894,6191
21.6049,7767
21.6203,8038
21.6358,7352
21.6512,7537
21.6667,7361
21.6821,10295
21.6976,15661
21.713,22500
21.7285,28149
21.7439,31324
21.7593,32801
21.7748,28888
21.7902,25338
21.8057,21080
21.8211,15485
21.8366,14369
21.852,12187
21.8675,11073
21.8829,10111
21.8984,9456
21.9138,8060
21.9292,7731
21.9447,7275
21.9601,8024
21.9756,7492
21.991,7632
22.0065,6348
22.0219,5851
22.0374,6099
22.0528,5498
22.0682,5823
22.0837,5532
22.0991,6151
22.1146,6725
22.13,6406
22.1455,6504
22.1609,6891
22.1763,7027
22.1918,6392
22.2073,6661
22.2227,6633
22.2381,6428
22.2536,5568
22.269,6003
22.2845,6249
22.2999,6060
22.3154,5509
22.3308,5808
22.3463,4748
22.3617,4737
22.3771,4979
22.3926,4716
22.408,4571
22.4235,5401
22.4389,5387
22.4544,5490
22.4698,4437
22.4853,4801
22.5007,5085
22.5162,5251
22.5316,4243
22.547,5296
22.5625,5231
22.5779,5696
22.5934,4527
22.6088,4673
22.6243,4941
22.6397,5011
22.6552,4852
22.6706,4726
22.686,4258
22.7015,4607
22.7169,4056
22.7324,4441
22.7478,4224
22.7633,4820
22.7787,4428
22.7942,5111
22.8096,5064
22.8251,5217
22.8405,4832
22.8559,5026
22.8714,4832
22.8868,5058
22.9023,4224
22.9177,4105
22.9332,5354
22.9486,4944
22.9641,4229
22.9795,4539
22.9949,3820
23.0104,4239
23.0258,4689
23.0413,4446
23.0567,4415
23.0722,4041
23.0876,4538
23.1031,4731
23.1185,4221
23.134,4292
23.1494,4497
23.1648,4202
23.1803,4771
23.1957,5868
23.2112,4734
23.2266,5159
23.2421,4268
23.2575,5013
23.273,4483
23.2884,4739
23.3038,4719
23.3193,4135
23.3347,3904
23.3502,4231
23.3656,3838
23.3811,4499
23.3965,5632
23.412,6507
23.4274,6124
23.4428,5165
23.4583,4100
23.4737,3941
23.4892,4142
23.5046,3936
23.5201,4422
23.5355,3952
23.551,4520
23.5664,4618
23.5819,4142
23.5973,3686
23.6127,4948
23.6282,4317
23.6436,5557
23.6591,3907
23.6745,4370
23.69,4829
23.7054,4166
23.7209,3837
23.7363,3746
23.7517,4320
23.7672,4731
23.7826,3962
23.834,3901
23.8545,4215
23.875,4304
23.8955,4636
23.916,4215
23.9365,4794
23.957,4922
23.9775,4537
23.9979,5357
24.0184,4923
24.0389,4647
24.0594,4925
24.0799,4791
24.1004,4714
24.1209,4681
24.1414,3859
24.1619,4944
24.1824,4586
24.2029,4331
24.2234,5734
24.2438,4871
24.2643,4826
24.2848,4913
24.3053,4768
24.3258,5290
24.3463,5158
24.3668,4147
24.3873,5001
24.4078,5467
24.4283,4632
24.4488,5066
24.4692,4370
24.4897,4198
24.5102,4614
24.5307,4689
24.5512,5454
24.5717,4596
24.5922,5484
24.6127,5114
24.6332,5692
24.6537,4976
24.6742,4969
24.6947,5435
24.7151,5678
24.7356,5850
24.7561,4720
24.7766,5997
24.7971,6233
24.8176,5568
24.8381,4704
24.8586,5049
24.8791,4900
24.8996,6183
24.9201,5530
24.9405,5425
24.961,5121
24.9815,4602
25.002,4679
25.0225,4971
25.043,4385
25.0635,4538
25.084,4505
25.1045,4688
25.125,4827
25.1455,5143
25.166,5099
25.1864,4560
25.2069,4841
25.2274,5318
25.2479,4865
25.2684,5223
25.2889,4513
25.3094,5827
25.3299,4395
25.3504,5053
25.3709,4721
25.3914,4823
25.4118,5400
25.4323,4958
25.4528,4310
25.4733,5776
25.4938,5056
25.5143,4873
25.5348,4868
25.5553,4882
25.5758,4871
25.5963,5453
25.6168,5083
25.6373,6154
25.6577,5562
25.6782,5554
25.6987,5703
25.7192,5068
25.7397,5853
25.7602,4884
25.7807,5819
25.8012,4999
25.8217,4886
25.8422,5475
25.8627,5787
25.8831,5228
25.9036,5223
25.9241,5262
25.9446,4866
25.9651,5006
25.9856,5167
26.0061,5010
26.0266,5564
26.0471,5973
26.0676,6887
26.0881,6799
26.1086,5867
26.129,5867
26.1495,5850
26.17,6630
26.1905,5206
26.211,5245
26.2315,4956
26.252,5445
26.2725,5219
26.293,4968
26.3135,5613
26.334,5382
26.3544,6410
26.3749,5935
26.3954,5219
26.4159,5745
26.4364,5863
26.4569,5335
26.4774,5918
26.4979,5559
26.5184,5771
26.5389,4841
26.5594,5294
26.5798,6224
26.6003,5547
26.6208,6030
26.6413,5883
26.6618,4719
26.6823,5678
26.7028,6068
26.7233,5237
26.7438,5596
26.7643,5206
26.7848,5387
26.8053,6076
26.8257,6784
26.8462,5419
26.8667,5613
26.8872,4773
26.9077,5868
26.9282,5681
26.9487,4857
26.9692,5949
26.9897,6076
27.0102,6166
27.0307,6271
27.0511,7166
27.0716,6152
27.0921,6317
27.1126,6161
27.1331,5803
27.1536,5392
27.1741,6064
27.1946,5802
27.2151,5564
27.2356,6184
27.2561,6302
27.2766,6190
27.297,5787
27.3175,5632
27.338,5671
27.3585,6315
27.379,5413
27.3995,6002
27.42,6065
27.4405,6115
27.461,6079
27.4815,6091
27.502,5715
27.5224,6167
27.5429,6088
27.5634,5553
27.5839,6499
27.6044,6079
27.6249,6000
27.6454,5089
27.6659,5630
27.6864,6261
27.7069,5939
27.7274,6013
27.7479,5423
27.7683,6472
27.7888,6714
27.8093,5834
27.8298,6348
27.8503,5982
27.8708,5768
27.8913,6119
27.9118,5956
27.9323,5851
27.9528,6422
27.9733,5933
27.9937,6571
28.0142,5908
28.0347,5131
28.0552,6179
28.0757,6563
28.0962,5859
28.1167,5993
28.1372,4877
28.1577,6762
28.1782,5971
28.1987,6886
28.2192,6143
28.2396,6316
28.2601,5956
28.2806,5479
28.3011,6538
28.3216,6027
28.3421,6478
28.3626,6201
28.3831,7480
28.4036,6508
28.4241,6389
28.4446,7253
28.465,6668
28.4855,7357
28.506,6238
28.5265,6366
28.547,6743
28.5675,6747
28.588,7053
28.6085,7720
28.629,7202
28.6495,7700
28.67,7067
28.6905,7392
28.7109,7437
28.7314,6087
28.7519,5972
28.7724,6533
28.7929,6067
28.8134,6133
28.8339,6609
28.8544,6184
28.8749,6394
28.8954,6173
28.9159,6166
28.9363,6859
28.9568,8288
28.9773,8940
28.9978,10864
29.0183,13966
29.0388,13630
29.0593,13951
29.0798,13073
29.1003,12111
29.1208,11455
29.1413,9682
29.1618,9166
29.1822,8096
29.2027,7777
29.2232,8020
29.2437,7624
29.2642,7701
29.2847,7466
29.3052,7722
29.3257,7087
29.3462,7377
29.3667,7522
29.3872,6888
29.4076,7044
29.4281,6573
29.4486,6434
29.4691,6802
29.4896,8115
29.5101,7114
29.5306,6921
29.5511,7748
29.5716,7939
29.5921,7194
29.6126,8805
29.633,12509
29.6535,18193
29.674,20646
29.6945,18949
29.715,16471
29.7355,14418
29.756,12234
29.7765,9206
29.797,9237
29.8175,9453
29.838,8099
29.8585,8220
29.8789,7425
29.8994,7029
29.9199,6949
29.9404,7603
29.9609,7827
29.9814,6680
30.0019,7879
30.0224,7018
30.0429,6578
30.0634,6663
30.0839,7137
30.1043,7138
30.1248,7465
30.1453,6963
30.1658,6303
30.1863,7263
30.2068,7095
30.2273,8672
30.2478,6887
30.2683,7281
30.2888,7157
30.3093,6748
30.3298,6723
30.3502,7158
30.3707,6474
30.3912,6554
30.4117,7026
30.4322,7888
30.4527,6204
30.4732,7372
30.4937,7133
30.5142,7458
30.5347,6945
30.5552,7659
30.5756,7308
30.5961,7425
30.6166,7436
30.6371,7171
30.6576,8135
30.6781,7337
30.6986,8020
30.7191,6601
30.7396,7290
30.7601,7609
30.7806,7227
30.8011,7589
30.8215,7875
30.842,7688
30.8625,7962
30.883,7204
30.9035,7186
30.924,7296
30.9445,7639
30.965,7732
30.9855,6962
31.006,7445
31.0265,7149
31.0469,8395
31.0674,8748
31.0879,8542
31.1084,8378
31.1289,9613
31.1494,9267
31.1699,8311
31.1904,8165
31.2109,7804
31.2314,8720
31.2519,8531
31.2724,8522
31.2928,6919
31.3133,7801
31.3338,7522
31.3543,7333
31.3748,7969
31.3953,7754
31.4158,8664
31.4363,7510
31.4568,7859
31.4773,7739
31.4978,8060
31.5182,7997
31.5387,8677
31.5592,8073
31.5797,7920
31.6002,7973
31.6207,6930
31.6412,7166
31.6617,8305
31.6822,7905
31.7027,7549
31.7232,7378
31.7437,8051
31.7641,8371
31.7846,8433
31.8051,7278
31.8256,7927
31.8461,7110
31.8666,7695
31.9281,8250
31.9486,8801
31.9691,7253
31.9895,8760
32.01,8580
32.0305,8099
32.051,9110
32.0715,10228
32.092,12133
32.1125,12881
32.133,12611
32.1535,8954
32.1739,9256
32.1945,8319
32.2149,8141
32.2354,8660
32.2559,7246
32.2764,9433
32.2969,7344
32.3174,7652
32.3379,8252
32.3584,8018
32.3789,8925
32.3993,8038
32.4198,8399
32.4403,8214
32.4608,8485
32.4813,8238
32.5018,7912
32.5223,8166
32.5428,8420
32.5633,8261
32.5838,7580
32.6043,8791
32.6247,8271
32.6452,9080
32.6657,8760
32.6862,8954
32.7067,10815
32.7272,9955
32.7477,10073
32.7682,9467
32.7887,9258
32.8092,10068
32.8297,9174
32.8501,9537
32.8706,9649
32.8911,9697
32.9116,8634
32.9321,9350
32.9526,8357
32.9731,8947
32.9936,8873
33.0141,10192
33.0346,8410
33.0551,8435
33.0756,8849
33.096,8834
33.1165,8788
33.137,9305
33.1575,9731
33.178,9783
33.1985,9713
33.219,9472
33.2395,10099
33.26,8845
33.2805,9158
33.301,8893
33.3214,9673
33.3419,8925
33.3624,9013
33.3829,9887
33.4034,10821
33.4239,10267
33.4444,10003
33.4649,10149
33.4854,9269
33.5059,9956
33.5263,9175
33.5468,9261
33.5673,9752
33.5878,9865
33.6083,10118
33.6288,9682
33.6493,9767
33.6698,9799
33.6903,9658
33.7107,8942
33.7313,9301
33.7517,8603
33.7722,10137
33.7927,10135
33.8132,10410
33.8337,9247
33.8542,9975
33.8747,9115
33.8952,9363
33.9157,10152
33.9361,10070
33.9567,9761
33.9771,9180
33.9976,10266
34.0181,9364
34.0386,8803
34.0591,9052
34.0796,10624
34.1001,10700
34.1206,9881
34.1411,9992
34.1615,9123
34.182,10223
34.2025,9567
34.223,10317
34.2435,10828
34.264,9664
34.2845,9904
34.305,8727
34.3255,10340
34.346,10189
34.3665,11101
34.3869,10713
34.4074,10650
34.4279,10750
34.4484,11073
34.4689,10790
34.4894,11238
34.5099,10124
34.5304,10184
34.5509,10681
34.5714,10452
34.5919,10972
34.6123,10620
34.6328,11529
34.6533,10254
34.6738,10369
34.6943,9990
34.7148,11411
34.7353,10673
34.7558,9728
34.7763,10910
34.7968,10850
34.8173,11192
34.8378,9903
34.8582,11180
34.8787,10419
34.8992,11485
34.9197,11495
34.9402,12711
34.9607,12155
34.9812,11197
35.0017,10798
35.0222,10990
35.0427,11604
35.0632,11152
35.0836,11700
35.1041,10942
35.1246,12521
35.1451,10568
35.1656,11115
35.1861,11379
35.2066,11987
35.2271,10934
35.2476,11726
35.2681,11256
35.2886,12401
35.309,12546
35.3295,12232
35.35,12321
35.3705,13614
35.391,12195
35.4115,12487
35.432,13105
35.4525,12539
35.473,12877
35.4935,13928
35.514,13309
35.5344,13160
35.5549,12349
35.5754,12751
35.5959,14246
35.6164,14804
35.6369,13506
35.6574,15339
35.6779,12761
35.6984,13981
35.7189,12340
35.7393,12960
35.7598,13792
35.7803,13868
35.8008,12863
35.8213,13978
35.8418,12889
35.8623,14044
35.8828,15141
35.9033,15047
35.9237,13651
35.9443,15220
35.9647,14420
35.9852,15785
36.0057,14812
36.0262,14614
36.0467,15192
36.0672,14905
36.0877,13767
36.1082,14138
36.1287,14406
36.1491,14424
36.1697,14514
36.1901,15212
36.2106,15747
36.2311,16037
36.2516,16299
36.2721,14716
36.2926,14873
36.3131,15779
36.3336,15542
36.3541,15737
36.3745,15340
36.3951,15031
36.4155,15507
36.436,15517
36.4565,15706
36.477,15741
36.4975,15344
36.518,16249
36.5385,14922
36.559,18257
36.5795,16927
36.6,15956
36.6205,18641
36.6409,16583
36.6614,16038
36.6819,16954
36.7024,16208
36.7229,17980
36.7434,18592
36.7639,17118
36.7844,17547
36.8049,16365
36.8254,19078
36.8458,18858
36.8663,18961
36.8868,19263
36.9073,19897
36.9278,19305
36.9483,19252
36.9688,18364
36.9893,19523
37.0098,18245
37.0303,19275
37.0508,18236
37.0712,19966
37.0917,19163
37.1122,19089
37.1327,20161
37.1532,19772
37.1737,17844
37.1942,19268
37.2147,20158
37.2352,20085
37.2557,18770
37.2762,19093
37.2966,19025
37.3171,18607
37.3376,19320
37.3581,18834
37.3786,20328
37.3991,19837
37.4196,19725
37.4401,21083
37.4606,18386
37.4811,20416
37.5016,22023
37.522,21364
37.5425,21314
37.563,21543
37.5835,20422
37.604,20319
37.6245,20806
37.645,21138
37.6655,21047
37.686,22197
37.7065,21756
37.727,23060
37.7474,22554
37.7679,23442
37.7884,23075
37.8089,22532
37.8294,22231
37.8499,21806
37.8704,23854
37.8909,23115
37.9114,22929
37.9319,23197
37.9523,23690
37.9728,24323
37.9933,23588
38.0138,24897
38.0343,22696
38.0548,25157
38.0753,25171
38.0958,23328
38.1163,25048
38.1367,24276
38.1573,24096
38.1777,24880
38.1982,23910
38.2187,24251
38.2392,25358
38.2597,25509
38.2802,27109
38.3007,27027
38.3212,27423
38.3417,26993
38.3622,25839
38.3827,25469
38.4031,26290
38.4236,26068
38.4441,27160
38.4646,27827
38.4851,26773
38.5056,27904
38.5261,28526
38.5466,28196
38.5671,28379
38.5876,27520
38.608,27878
38.6285,28799
38.649,28306
38.6695,29395
38.69,28431
38.7105,29154
38.731,27935
38.7515,27587
38.772,29711
38.7925,29106
38.813,29754
38.8334,28386
38.8539,28874
38.8744,29060
38.8949,29236
38.9154,29478
38.9359,31019
38.9564,30061
38.9769,29711
38.9974,32571
39.0179,30302
39.0384,31022
39.0588,31531
39.0793,32043
39.0998,34506
39.1203,32929
39.1408,32911
39.1613,32922
39.1818,33459
39.2023,34569
39.2228,32976
39.2433,35788
39.2638,33745
39.2842,33272
39.3047,31677
39.3252,34584
39.3457,33141
39.3662,32835
39.3867,33951
39.4072,34907
39.4277,35436
39.4482,34580
39.4687,34840
39.4892,34576
39.5096,34621
39.5301,36182
39.5506,35020
39.5711,35065
39.5916,36980
39.6121,36278
39.6326,36014
39.6531,36407
39.6736,40533
39.6941,38052
39.7146,37426
39.735,35692
39.7555,37696
39.776,38143
39.7965,36725
39.817,39043
39.8375,36773
39.858,38859
39.8785,39441
39.9299,39694
39.9403,42130
39.9507,40858
39.9611,40750
39.9715,41394
39.9819,41770
39.9923,41055
40.0027,41566
40.0132,40870
40.0236,41279
40.034,42218
40.0444,41497
40.0548,42476
40.0652,41151
40.0756,41765
40.086,41009
40.0965,42904
40.1069,42022
40.1173,42156
40.1277,41536
40.1381,43313
40.1485,41814
40.1589,41199
40.1693,43351
40.1797,42854
40.1902,43591
40.2006,43720
40.211,44776
40.2214,43697
40.2318,44941
40.2422,44807
40.2526,44438
40.263,44069
40.2735,45779
40.2839,43713
40.2943,44686
40.3047,44200
40.3151,42818
40.3255,43082
40.3359,46309
40.3463,47017
40.3568,46266
40.3672,45050
40.3776,45750
40.388,46326
40.3984,47012
40.4088,47620
40.4192,47074
40.4296,46667
40.44,48049
40.4505,47468
40.4609,46000
40.4713,48864
40.4817,46920
40.4921,47354
40.5025,46829
40.5129,49365
40.5233,48096
40.5338,47721
40.5442,48076
40.5546,48389
40.565,47907
40.5754,48147
40.5858,48803
40.5962,48522
40.6066,47833
40.617,47643
40.6275,49230
40.6379,49122
40.6483,49582
40.6587,49105
40.6691,48848
40.6795,48471
40.6899,48183
40.7003,48714
40.7107,50183
40.7212,49739
40.7316,49548
40.742,51775
40.7524,50215
40.7628,50837
40.7732,51817
40.7836,51859
40.794,52987
40.8045,51335
40.8149,52379
40.8253,52427
40.8357,52323
40.8461,52758
40.8565,53577
40.8669,54200
40.8773,54600
40.8877,54300
40.8982,53507
40.9086,53166
40.919,54410
40.9294,56214
40.9398,54248
40.9502,55300
40.9606,53961
40.971,56706
40.9815,57147
40.9918,57072
41.0023,55035
41.0127,55697
41.0231,54492
41.0335,54799
41.0439,56401
41.0543,55362
41.0647,56823
41.0752,57189
41.0856,55547
41.096,56877
41.1064,56944
41.1168,58068
41.1272,58611
41.1376,57485
41.148,60516
41.1585,57783
41.1688,59012
41.1793,58439
41.1897,58919
41.2001,59883
41.2105,59623
41.2209,57971
41.2313,60783
41.2417,60603
41.2522,59690
41.2626,59174
41.273,57793
41.2834,60117
41.2938,60583
41.3042,61248
41.3146,58643
41.325,59436
41.3355,61890
41.3458,60387
41.3563,61369
41.3667,60745
41.3771,62999
41.3875,61581
41.3979,64188
41.4083,60925
41.4187,63245
41.4292,64123
41.4396,64894
41.45,63981
41.4604,63376
41.4708,66028
41.4812,64494
41.4916,64243
41.502,65149
41.5124,65270
41.5229,67078
41.5333,66493
41.5437,66473
41.5541,66763
41.5645,67965
41.5749,66925
41.5853,66537
41.5957,70043
41.6062,67592
41.6166,66367
41.627,67683
41.6374,70527
41.6478,68081
41.6582,66734
41.6686,69371
41.679,69349
41.6894,68683
41.6999,73028
41.7103,68568
41.7207,71028
41.7311,74267
41.7415,73598
41.7519,69480
41.7623,68635
41.7727,69307
41.7831,72995
41.7936,73017
41.804,73344
41.8144,76543
41.8248,71326
41.8352,78023
41.8456,78760
41.856,74303
41.8664,74844
41.8769,75190
41.8873,74729
41.8977,75520
41.9081,77686
41.9185,77502
41.9289,75190
41.9393,73849
41.9497,77329
41.9601,76365
41.9706,78601
41.981,76878
41.9914,76745
42.0018,74811
42.0122,79828
42.0226,78958
42.033,77947
42.0434,77566
42.0539,77779
42.0643,80250
42.0747,78734
42.0851,80764
42.0955,81909
42.1059,80854
42.1163,80440
42.1267,82948
42.1372,84733
42.1476,82652
42.158,83629
42.1684,83729
42.1788,82803
42.1892,86300
42.1996,85546
42.21,87985
42.2204,87815
42.2309,85714
42.2413,87500
42.2517,87143
42.2621,85845
42.2725,88492
42.2829,88597
42.2933,87711
42.3037,90624
42.3141,88826
42.3246,88780
42.335,90224
42.3454,91914
42.3558,91262
42.3662,92214
42.3766,90470
42.387,94099
42.3974,95240
42.4079,90719
42.4183,90844
42.4287,93043
42.4391,90132
42.4495,93056
42.4599,92531
42.4703,95137
42.4807,93737
42.4911,95334
42.5016,97843
42.512,93627
42.5224,95039
42.5328,96981
42.5432,98197
42.5536,96741
42.564,99038
42.5744,95682
42.5849,96424
42.5953,99084
42.6057,98662
42.6161,96767
42.6265,98096
42.6369,98237
42.6473,100022
42.6577,100137
42.6681,103708
42.6786,100649
42.689,103570
42.6994,102345
42.7098,102263
42.7202,105157
42.7306,106141
42.741,103215
42.7514,108087
42.7619,107387
42.7723,106841
42.7827,106904
42.7931,108519
42.8035,105875
42.8139,107116
42.8243,108954
42.8347,105096
42.8451,108004
42.8556,107736
42.866,110960
42.8764,111025
42.8868,107354
42.8972,109610
42.9076,110601
42.918,113737
42.9284,113077
42.9389,114755
42.9492,113511
42.9597,112156
42.9701,112966
42.9805,114929
42.9909,116075
43.0013,115658
43.0117,115739
43.0221,115613
43.0326,117003
43.043,117266
43.0534,117147
43.0638,117948
43.0742,119780
43.0846,118519
43.095,117690
43.1054,118912
43.1158,120529
43.1262,119701
43.1367,117946
43.1471,121679
43.1575,123827
43.1679,121619
43.1783,124120
43.1887,123262
43.1991,125764
43.2096,124094
43.22,124927
43.2304,126433
43.2408,121737
43.2512,125341
43.2616,127674
43.272,127684
43.2824,128569
43.2928,127824
43.3033,134583
43.3137,131375
43.3241,129214
43.3345,133436
43.3449,130745
43.3553,130409
43.3657,133982
43.3761,132383
43.3866,132745
43.397,131897
43.4074,135198
43.4178,135251
43.4282,138563
43.4386,136270
43.449,138800
43.4594,136770
43.4698,138601
43.4803,135826
43.4907,141309
43.5011,143570
43.5115,143919
43.5219,142070
43.5323,140010
43.5427,141821
43.5531,140178
43.5635,143222
43.574,144284
43.5844,144435
43.5948,144919
43.6052,144716
43.6156,144505
43.626,147507
43.6364,147462
43.6468,150487
43.6573,144835
43.6677,149195
43.6781,154585
43.6885,155882
43.6989,153316
43.7093,153543
43.7197,154896
43.7301,153877
43.7405,155429
43.751,157086
43.7614,158614
43.7718,157435
43.7822,161051
43.7926,159487
43.803,161317
43.8134,161711
43.8238,162966
43.8343,161619
43.8447,164042
43.8551,167091
43.8655,168470
43.8759,167839
43.8863,166145
43.8967,167161
43.9071,170310
43.9176,173791
43.928,171504
43.9384,170523
43.9488,171360
43.9592,174928
43.9696,171871
43.98,172817
43.9904,176907
44.0008,176536
44.0113,178411
44.0217,180026
44.0321,177784
44.0425,179147
44.0529,180882
44.0633,186042
44.0737,182669
44.0841,183200
44.0945,182097
44.105,187211
44.1154,181943
44.1258,185972
44.1362,186470
44.1466,187525
44.157,188755
44.1674,187491
44.1778,191862
44.1883,190502
44.1987,193016
44.2091,195932
44.2195,189116
44.2299,193254
44.2403,198044
44.2507,193705
44.2611,196593
44.2715,195995
44.282,201713
44.2924,200563
44.3028,201498
44.3132,201561
44.3236,202494
44.334,203899
44.3444,202504
44.3548,205823
44.3653,207445
44.3757,208727
44.3861,207500
44.3965,205121
44.4069,210413
44.4173,206241
44.4277,209311
44.4381,214497
44.4485,213274
44.459,215262
44.4694,214974
44.4798,214796
44.4902,218057
44.5006,217452
44.511,219695
44.5214,221846
44.5318,224661
44.5423,224712
44.5527,228928
44.5631,223677
44.5735,229638
44.5839,226218
44.5943,229458
44.6047,229791
44.6151,230947
44.6255,229665
44.636,227707
44.6464,226869
44.6568,234567
44.6672,235068
44.6776,239320
44.688,237353
44.6984,238295
44.7088,239619
44.7193,236196
44.7296,243723
44.7401,246169
44.7505,243004
44.7609,248596
44.7713,248556
44.7817,250524
44.7921,251724
44.8025,252825
44.813,253652
44.8234,253841
44.8338,256768
44.8442,257470
44.8546,250644
44.865,256117
44.8754,255752
44.8858,259819
44.8962,264248
44.9066,259260
44.9171,260338
44.9275,262785
44.9379,263577
44.9483,263960
44.9587,264223
44.9691,264854
44.9795,267052
44.99,269518
45.0004,271376
45.0108,274084
45.0212,273081
45.0316,275416
45.042,272828
45.0524,277293
45.0628,281186
45.0732,280847
45.0836,281369
45.0941,287005
45.1045,285330
45.1149,284341
45.1253,285512
45.1357,290591
45.1461,297440
45.1565,295833
45.167,289806
45.1774,294525
45.1878,294487
45.1982,292191
45.2086,295909
45.219,300229
45.2294,298731
45.2398,297748
45.2502,305030
45.2607,311708
45.2711,305342
45.2815,307355
45.2919,315271
45.3023,306016
45.3127,310194
45.3231,316723
45.3335,314619
45.344,313824
45.3544,319296
45.3648,312528
45.3752,316981
45.3856,322511
45.396,322464
45.4064,319080
45.4168,323734
45.4272,331970
45.4377,329302
45.4481,332178
45.4585,329675
45.4689,333566
45.4793,330733
45.4897,331788
45.5001,341430
45.5105,336356
45.5209,337737
45.5314,344045
45.5418,347078
45.5522,346677
45.5626,353429
45.573,347923
45.5834,348796
45.5938,353174
45.6042,354402
45.6147,352253
45.6251,354357
45.6355,365510
45.6459,362305
45.6563,360375
45.6667,367093
45.6771,366432
45.6875,373955
45.6979,372125
45.7084,374600
45.7188,375550
45.7292,380051
45.7396,378443
45.75,381433
45.7604,379391
45.7708,381639
45.7812,386014
45.7917,381198
45.8021,384100
45.8125,389111
45.8229,388798
45.8333,394705
45.8437,398131
45.8541,401646
45.8645,398386
45.8749,401934
45.8854,406679
45.8958,408276
45.9062,409303
45.9166,417175
45.927,416321
45.9374,417316
45.9478,418183
45.9582,423769
45.9687,418079
45.9791,415229
45.9895,422410
45.9999,428652
46.0103,425338
46.0207,429798
46.0311,428758
46.0415,439078
46.0519,434121
46.0624,441547
46.0728,434708
46.0832,439886
46.0936,442856
46.104,447720
46.1144,451112
46.1248,444386
46.1352,444045
46.1457,449248
46.1561,453697
46.1665,452546
46.1769,455806
46.1873,457965
46.1977,454350
46.2081,462551
46.2185,469641
46.2289,464626
46.2394,468355
46.2498,467863
46.2602,474093
46.2706,478150
46.281,478166
46.2914,483160
46.3018,482182
46.3122,483188
46.3227,498092
46.3331,502228
46.3435,491340
46.3539,499712
46.3643,502905
46.3747,501862
46.3851,503762
46.3955,506430
46.4059,517167
46.4164,514112
46.4268,517579
46.4372,510150
46.4476,513625
46.458,519334
46.4684,522255
46.4788,528844
46.4892,532251
46.4997,536112
46.5101,535244
46.5205,534496
46.5309,535314
46.5413,534145
46.5517,543586
46.5621,545433
46.5725,545591
46.5829,553912
46.5934,560688
46.6038,557358
46.6142,556458
46.6246,564492
46.635,561888
46.6454,566824
46.6558,566774
46.6662,568693
46.6766,575158
46.687,578826
46.6975,586371
46.7079,584026
46.7183,587608
46.7287,585557
46.7391,592348
46.7495,590119
46.7599,593652
46.7704,602207
46.7808,596534
46.7912,608265
46.8016,603684
46.812,606153
46.8224,605277
46.8328,614627
46.8432,619509
46.8536,623209
46.864,620766
46.8745,633355
46.8849,634284
46.8953,639455
46.9057,629692
46.9161,635022
46.9265,638746
46.9369,648320
46.9474,649951
46.9578,653561
46.9682,655252
46.9786,663073
46.989,671265
46.9994,662092
47.0098,663106
47.0202,674996
47.0306,676741
47.0411,676406
47.0515,681342
47.0619,675937
47.0723,686193
47.0827,688786
47.0931,683770
47.1035,699663
47.1139,698993
47.1244,704196
47.1348,695997
47.1452,709331
47.1556,706532
47.166,701480
47.1764,711622
47.1868,721551
47.1972,716043
47.2076,713635
47.2181,724874
47.2285,725855
47.2389,732599
47.2493,737298
47.2597,737093
47.2701,741107
47.2805,753286
47.2909,751006
47.3013,757670
47.3118,760420
47.3222,765080
47.3326,767442
47.343,769743
47.3534,775216
47.3638,783619
47.3742,789082
47.3846,788625
47.3951,790065
47.4055,794010
47.4159,794500
47.4263,797612
47.4367,799119
47.4471,814513
47.4575,809690
47.4679,822398
47.4783,832895
47.4888,822427
47.4992,832314
47.5096,831414
47.52,833661
47.5304,831568
47.5408,840334
47.5512,836869
47.5616,830578
47.5721,835762
47.5825,831188
47.5929,834742
47.6033,838966
47.6137,835572
47.6241,842193
47.6345,848660
47.6449,844270
47.6553,845936
47.6658,850833
47.6762,863155
47.6866,859924
47.697,860332
47.7074,852669
47.7178,858137
47.7282,859875
47.7386,864941
47.7491,867605
47.7595,870550
47.7699,864958
47.7803,870891
47.7907,873843
47.8011,880976
47.8115,876710
47.8219,878438
47.8323,875652
47.8428,875755
47.8532,883979
47.8636,888078
47.874,888913
47.8844,891361
47.8948,898196
47.9052,900173
47.9156,899697
47.9261,899193
47.9365,902620
47.9469,900745
47.9573,900210
47.9677,909422
47.9781,906109
47.9885,908444
47.9989,913780
48.0093,913092
48.0198,917741
48.0302,916110
48.0406,916836
48.051,922696
48.0614,921159
48.0718,942870
48.0822,939281
48.0926,939816
48.1031,927868
48.1135,936404
48.1239,937804
48.1343,950764
48.1447,946344
48.1551,947872
48.1655,935642
48.1759,943112
48.1863,950956
48.1968,943932
48.2072,952043
48.2176,952247
48.228,952314
48.2384,956073
48.2488,960104
48.2592,962522
48.2696,962298
48.28,961971
48.2905,964487
48.3009,964491
48.3113,967223
48.3217,967831
48.3321,965771
48.3425,960194
48.3529,980858
48.3633,970733
48.3738,973529
48.3842,978671
48.3946,976405
48.405,980036
48.4154,980190
48.4258,982864
48.4362,968228
48.4466,975704
48.457,985270
48.4674,987781
48.4779,990602
48.4883,1007209
48.4987,997077
48.5091,1005983
48.5195,997755
48.5299,994749
48.5403,985401
48.5508,1003839
48.5612,1004575
48.5716,1013011
48.582,1011239
48.5924,1001614
48.6028,1014519
48.6132,1008741
48.6236,1004631
48.634,1012117
48.6444,1012573
48.6549,1012046
48.6653,1007819
48.6757,1012148
48.6861,1014678
48.6965,1016884
48.7069,1020511
48.7173,1021976
48.7278,1020921
48.7382,1009014
48.7486,1019551
48.759,1022035
48.7694,1028599
48.7798,1025238
48.7902,1031668
48.8006,1027802
48.811,1022779
48.8215,1031435
48.8319,1033117
48.8423,1040331
48.8527,1039513
48.8631,1044431
48.8735,1047637
48.8839,1044047
48.8943,1037169
48.9048,1039649
48.9152,1045662
48.9256,1035336
48.936,1041590
48.9464,1042415
48.9568,1036676
48.9672,1047329
48.9776,1053865
48.988,1045551
48.9985,1050296
49.0089,1039726
49.0193,1056900
49.0297,1047998
49.0401,1033112
49.0505,1039841
49.0609,1051446
49.0713,1053129
49.0817,1054319
49.0922,1044779
49.1026,1041795
49.113,1047069
49.1234,1059066
49.1338,1052142
49.1442,1059965
49.1546,1053220
49.165,1052072
49.1755,1054229
49.1859,1053889
49.1963,1062397
49.2067,1054793
49.2171,1064495
49.2275,1059690
49.2379,1067256
49.2483,1053969
49.2587,1063844
49.2692,1059135
49.2796,1067414
49.29,1063597
49.3004,1070018
49.3108,1072849
49.3212,1066900
49.3316,1067832
49.342,1075871
49.3525,1068375
49.3629,1061854
49.3733,1076909
49.3837,1073042
49.3941,1074758
49.4045,1070892
49.4149,1062692
49.4253,1069375
49.4357,1071739
49.4462,1070213
49.4566,1073936
49.467,1053071
49.4774,1076826
49.4878,1071360
49.4982,1070065
49.5086,1058306
49.519,1065552
49.5295,1069743
49.5399,1061475
49.5503,1063138
49.5607,1069225
49.5711,1067331
49.5815,1069013
49.5919,1075633
49.6023,1067498
49.6127,1072153
49.6232,1062027
49.6336,1082766
49.644,1075230
49.6544,1074226
49.6648,1060401
49.6752,1066058
49.6856,1074649
49.696,1061977
49.7065,1066258
49.7169,1072944
49.7273,1070379
49.7377,1068201
49.7481,1083995
49.7585,1083103
49.7689,1073249
49.7793,1079829
49.7897,1077175
49.8002,1064140
49.8106,1084270
49.821,1075184
49.8314,1086872
49.8418,1086836
49.8522,1084616
49.8626,1072577
49.873,1079001
49.8835,1096101
49.8939,1087427
49.9043,1085565
49.9147,1089432
49.9251,1093606
49.9355,1085194
49.9459,1079288
49.9563,1096993
49.9667,1083756
49.9772,1084046
49.9876,1087829
49.998,1084171
50.0084,1093361
50.0188,1095777
50.0292,1101552
50.0396,1097431
50.05,1081948
50.0604,1088587
50.0709,1092413
50.0813,1092358
50.0917,1095291
50.1021,1087362
50.1125,1094787
50.1229,1083294
50.1333,1090080
50.1437,1089257
50.1542,1079370
50.1646,1097149
50.175,1097104
50.1854,1087909
50.1958,1088677
50.2062,1101294
50.2166,1095816
50.227,1089996
50.2374,1100178
50.2479,1102135
50.2583,1107120
50.2687,1099574
50.2791,1116647
50.2895,1103214
50.2999,1100234
50.3103,1096380
50.3207,1101307
50.3312,1088324
50.3416,1105438
50.352,1099455
50.3624,1105777
50.3728,1104363
50.3832,1110497
50.3936,1109507
50.404,1115239
50.4144,1097610
50.4248,1112675
50.4353,1100512
50.4457,1103987
50.4561,1097300
50.4665,1089006
50.4769,1105578
50.4873,1098486
50.4977,1107852
50.5082,1097868
50.5186,1107491
50.529,1096410
50.5394,1094756
50.5498,1100836
50.5602,1100871
50.5706,1098296
50.581,1106915
50.5914,1094611
50.6018,1103207
50.6123,1108243
50.6227,1109368
50.6331,1106461
50.6435,1109780
50.6539,1101469
50.6643,1091419
50.6747,1113791
50.6852,1103970
50.6956,1106893
50.706,1104809
50.7164,1103046
50.7268,1107828
50.7372,1112873
50.7476,1106808
50.758,1103885
50.7684,1102129
50.7789,1115268
50.7893,1118747
50.7997,1120298
50.8101,1115359
50.8205,1121795
50.8309,1112134
50.8413,1108417
50.8517,1112645
50.8621,1113747
50.8726,1114340
50.883,1116281
50.8934,1112314
50.9038,1114345
50.9142,1117295
50.9246,1126241
50.935,1121165
50.9454,1121080
50.9559,1123272
50.9663,1120163
50.9767,1114886
50.9871,1112795
50.9975,1130923
51.0079,1114608
51.0183,1126424
51.0287,1106518
51.0391,1110043
51.0496,1112283
51.06,1108783
51.0704,1116834
51.0808,1112143
51.0912,1119714
51.1016,1118827
51.112,1114946
51.1224,1118594
51.1329,1122213
51.1433,1113094
51.1537,1117575
51.1641,1113517
51.1745,1117718
51.1849,1115435
51.1953,1122243
51.2057,1118037
51.2161,1126649
51.2266,1136560
51.237,1131093
51.2474,1123646
51.2578,1128394
51.2682,1132928
51.2786,1123998
51.289,1118263
51.2994,1116169
51.3099,1132267
51.3203,1127014
51.3307,1123673
51.3411,1120258
51.3515,1114554
51.3619,1113778
51.3723,1137278
51.3827,1127773
51.3931,1130286
51.4036,1110628
51.414,1110389
51.4244,1112814
51.4348,1114739
51.4452,1126959
51.4556,1124665
51.466,1122671
51.4764,1124238
51.4869,1135543
51.4973,1123048
51.5077,1128574
51.5181,1124238
51.5285,1121779
51.5389,1125741
51.5493,1134339
51.5597,1135707
51.5701,1128488
51.5806,1129682
51.591,1133067
51.6014,1136451
51.6118,1121507
51.6222,1134167
51.6326,1136924
51.643,1137405
51.6534,1132976
51.6638,1139254
51.6743,1132950
51.6847,1134593
51.6951,1141256
51.7055,1144459
51.7159,1144584
51.7263,1130917
51.7367,1129908
51.7471,1136212
51.7576,1138708
51.7679,1138615
51.7784,1139962
51.7888,1136326
51.7992,1138882
51.8096,1127675
51.82,1128412
51.8304,1140868
51.8408,1134975
51.8513,1139971
51.8617,1139883
51.8721,1131762
51.8825,1136297
51.8929,1131704
51.9033,1145896
51.9137,1131258
51.9241,1132812
51.9346,1130490
51.945,1136188
51.9554,1139420
51.9658,1140459
51.9762,1138024
51.9866,1134449
51.997,1126062
52.0074,1143840
52.0178,1137108
52.0283,1137402
52.0387,1134546
52.0491,1141669
52.0595,1151238
52.0699,1148881
52.0803,1138212
52.0907,1151398
52.1011,1147845
52.1116,1137583
52.122,1141682
52.1324,1145090
52.1428,1147889
52.1532,1133966
52.1636,1141486
52.174,1134759
52.1844,1138143
52.1948,1145711
52.2052,1151940
52.2157,1148646
52.2261,1146325
52.2365,1152224
52.2469,1145357
52.2573,1142577
52.2677,1153782
52.2781,1151363
52.2886,1142569
52.299,1140616
52.3094,1142704
52.3198,1144406
52.3302,1148290
52.3406,1151721
52.351,1146895
52.3614,1143119
52.3718,1150654
52.3822,1150501
52.3927,1145050
52.4031,1142399
52.4135,1155759
52.4239,1151594
52.4343,1159852
52.4447,1156952
52.4551,1149574
52.4655,1138809
52.476,1153238
52.4864,1141711
