C:\MSDCHEM\1\DATA\20150910HYDE\150910Hyde056.d 15 Sep 15   8:23 pm
Start of data points
2.10982,23000
2.132,22519
2.15417,21268
2.17635,17624
2.19852,19533
2.2207,19097
2.24288,17855
2.26505,16698
2.28723,16411
2.3094,16580
2.33158,17256
2.35375,17348
2.37593,15961
2.39812,16096
2.42028,16487
2.44247,15890
2.46463,14306
2.48682,15437
2.509,16574
2.53117,14945
2.55335,14910
2.57552,15332
2.5977,15491
2.61987,15750
2.64205,16217
2.66423,14684
2.6864,13913
2.70858,15413
2.73075,15517
2.75293,15366
2.77512,14521
2.79728,14539
2.81947,13961
2.84163,14091
2.86382,14903
2.886,14299
2.90817,14207
2.93035,14365
2.95252,13925
2.9747,14969
2.99687,13326
3.01905,13632
3.04123,13395
3.0634,13968
3.08558,12258
3.10775,12892
3.12993,12414
3.15212,13194
3.17428,11617
3.19647,12489
3.21863,13240
3.24082,13265
3.26298,13089
3.28517,12891
3.30735,12418
3.32952,12600
3.3517,12082
3.37387,12523
3.39605,11856
3.41823,11943
3.4404,11231
3.46258,11359
3.48475,11760
3.50693,13743
3.5291,11280
3.55128,11979
3.57347,10957
3.59563,11636
3.61782,12102
3.63998,12653
3.66217,11822
3.68435,11798
3.70652,11484
3.7287,10640
3.75087,11611
3.77305,11959
3.79522,10300
3.8174,11169
3.83958,10615
3.86175,10724
3.88393,10773
3.9061,11315
3.92828,10653
3.95047,12070
3.97263,10361
3.99482,10149
4.01698,11101
4.03917,11508
4.06133,11278
4.08352,10846
4.1057,10935
4.12787,11520
4.15005,11205
4.17222,10669
4.1944,10408
4.21658,10392
4.23875,10615
4.26093,9720
4.2831,10149
4.30528,12201
4.32745,11859
4.34963,12533
4.37182,22291
4.39398,52158
4.41617,101320
4.43833,104840
4.46052,66276
4.4827,43639
4.50487,29699
4.52705,25056
4.54922,23896
4.5714,21465
4.59357,26977
4.61575,35348
4.63793,34247
4.6601,26958
4.68228,21047
4.70445,18109
4.72663,16724
4.74882,15763
4.77098,14719
4.79317,13946
4.81533,13787
4.83752,12720
4.85968,14657
4.88187,13588
4.90405,13177
4.92622,12036
4.9484,10920
4.97057,12632
4.99275,11320
5.01493,10587
5.0371,10731
5.05928,10857
5.08145,10052
5.10363,11527
5.12582,10436
5.14798,10665
5.17017,11455
5.19233,11019
5.21452,11131
5.23668,10527
5.25887,9575
5.28105,9870
5.30322,9429
5.3254,10010
5.34757,10490
5.36975,11646
5.39193,10464
5.4141,9447
5.43628,9500
5.45845,9909
5.48063,10031
5.5028,9113
5.52498,9509
5.54717,9381
5.56933,9043
5.59152,8479
5.61368,7999
5.63587,9075
5.65805,8596
5.68022,11916
5.7024,15224
5.72457,15020
5.74675,13905
5.76892,10992
5.7911,10627
5.81328,11413
5.83545,11891
5.85763,10853
5.8798,12012
5.90198,8462
5.92417,8557
5.94633,8332
5.96852,8311
5.99068,9161
6.01287,6894
6.03503,7054
6.05722,8255
6.0794,8166
6.10157,8222
6.12375,8046
6.14592,7723
6.1681,7248
6.19028,6604
6.21245,7684
6.23463,7812
6.2568,8478
6.27898,10458
6.30115,14725
6.32333,12806
6.34552,9685
6.36768,8158
6.38987,8107
6.41203,7871
6.43422,7929
6.4564,7424
6.47857,8207
6.50075,11607
6.52292,20524
6.5451,25242
6.56727,19929
6.58945,13411
6.61163,10874
6.6338,8475
6.65598,8684
6.67815,8187
6.70033,7697
6.72252,7865
6.74468,6921
6.76687,7579
6.78903,6999
6.81122,7984
6.83338,8277
6.85557,8544
6.87775,7079
6.89992,7303
6.9221,8818
6.94427,7157
6.96645,6860
6.98863,7217
7.0108,7719
7.03298,7336
7.05515,6953
7.07733,6905
7.0995,6691
7.12168,6582
7.14387,6048
7.16603,6976
7.18822,8159
7.21038,7925
7.23257,7204
7.25475,7539
7.27692,6380
7.3384,8348
7.35553,6896
7.37265,6346
7.38978,6684
7.4069,7391
7.42403,6725
7.44117,6838
7.45828,7100
7.47542,7475
7.49253,6677
7.50967,6469
7.5268,6571
7.54392,7550
7.56105,9066
7.57818,10070
7.5953,10510
7.61243,9332
7.62955,7583
7.64668,7060
7.66382,7295
7.68093,6335
7.69807,7969
7.71518,6205
7.73232,6646
7.74945,5688
7.76657,6133
7.7837,7126
7.80082,6546
7.81795,6605
7.83508,5920
7.8522,6420
7.86933,5444
7.88647,5571
7.90358,5688
7.92072,6261
7.93783,5752
7.95497,5972
7.9721,6135
7.98922,5086
8.00635,5300
8.02347,6947
8.0406,5964
8.05773,6398
8.07485,5388
8.09198,5638
8.10912,6684
8.12623,5652
8.14337,5288
8.16048,5467
8.17762,5055
8.19475,5987
8.21187,5160
8.229,5417
8.24612,6514
8.26325,6696
8.28038,7095
8.2975,7150
8.31463,6618
8.33175,6428
8.34888,6002
8.36602,5112
8.38313,5068
8.40027,6557
8.4174,5224
8.43452,6056
8.45165,6669
8.46877,5755
8.4859,6609
8.50303,6054
8.52015,6084
8.53728,4926
8.5544,5384
8.57153,4784
8.58867,4982
8.60578,4901
8.62292,5494
8.64005,5251
8.65717,5241
8.6743,5907
8.69142,5365
8.70855,6086
8.72568,4954
8.7428,5321
8.75993,5315
8.77705,5437
8.79418,5060
8.81132,4876
8.82843,4808
8.84557,6069
8.86268,5667
8.87982,4353
8.89695,4929
8.91407,4643
8.9312,4910
8.94833,4830
8.96545,4880
8.98258,4578
8.9997,5016
9.01683,4938
9.03397,5525
9.05108,4980
9.06822,5061
9.08533,5128
9.10247,4975
9.1196,4458
9.13672,4946
9.15385,4722
9.17098,5487
9.1881,7295
9.20523,7913
9.22235,7189
9.23948,6066
9.25662,4967
9.27373,4711
9.29087,4643
9.30798,4400
9.32512,3979
9.34225,4277
9.35937,4568
9.3765,4956
9.39362,4824
9.41075,4881
9.42788,4780
9.445,4268
9.46213,5164
9.47927,4634
9.49638,5181
9.51352,5185
9.53063,3632
9.54777,4678
9.5649,4952
9.58202,4450
9.59915,5082
9.61627,4436
9.6334,4496
9.65053,4204
9.66765,5761
9.68478,10240
9.70192,20529
9.71903,35688
9.73617,58570
9.75328,68802
9.77042,60618
9.78755,40699
9.80467,21933
9.8218,13889
9.83892,9566
9.85605,6611
9.87318,5516
9.8903,5377
9.90743,5192
9.92455,5449
9.94168,5161
9.95882,5390
9.97593,5807
9.99307,5022
10.0102,5755
10.0273,4849
10.0445,5221
10.0616,4309
10.0787,5103
10.0958,4625
10.113,4446
10.1301,4170
10.1472,4074
10.1643,4945
10.1815,4282
10.1986,4576
10.2157,4835
10.2328,4509
10.25,3984
10.2671,4658
10.2842,4121
10.3014,3684
10.3185,3906
10.3356,5078
10.3527,4803
10.3699,4422
10.387,5031
10.4041,4650
10.4212,4807
10.4384,4051
10.4555,4542
10.4726,4211
10.4898,3731
10.5069,4044
10.524,4617
10.5411,4080
10.5583,3929
10.5754,4192
10.6301,3566
10.6506,3943
10.6711,4181
10.6916,3767
10.7121,3734
10.7326,4178
10.753,4182
10.7735,3945
10.794,3985
10.8145,4907
10.835,3967
10.8555,4286
10.876,4150
10.8965,4481
10.9169,5316
10.9374,6130
10.9579,6974
10.9784,6048
10.9989,6404
11.0194,5297
11.0399,5327
11.0603,4940
11.0808,5491
11.1013,4337
11.1218,4422
11.1423,4187
11.1628,4058
11.1833,4640
11.2037,5803
11.2242,6559
11.2447,6121
11.2652,7419
11.2857,4872
11.3062,4247
11.3267,3751
11.3472,3512
11.3676,4133
11.3881,3488
11.4086,3907
11.4291,4248
11.4496,3595
11.4701,4089
11.4906,3336
11.511,3929
11.5315,3896
11.552,4273
11.5725,10542
11.593,18192
11.6135,24938
11.634,23889
11.6545,16620
11.6749,9410
11.6954,6133
11.7159,5564
11.7364,4306
11.7569,4017
11.7774,4107
11.7979,3920
11.8183,4300
11.8388,4625
11.8593,3744
11.8798,4641
11.9003,4145
11.9208,4451
11.9413,4657
11.9617,4801
11.9822,5033
12.0027,5370
12.0232,4795
12.0437,5375
12.0642,4834
12.0847,4881
12.1052,5188
12.1256,4947
12.1461,4857
12.1666,4746
12.1871,5592
12.2076,5774
12.2281,5066
12.2486,6412
12.269,5356
12.2895,5643
12.31,5517
12.3305,4840
12.351,4156
12.3715,4460
12.392,4407
12.4125,3648
12.4329,4295
12.4534,4398
12.4739,4091
12.4944,4185
12.5149,3551
12.5354,4344
12.5559,4395
12.5763,4449
12.5968,4458
12.6173,4056
12.6378,3683
12.6583,4766
12.6788,3945
12.6993,3907
12.7197,3428
12.7402,3181
12.7607,4398
12.7812,4076
12.8017,3392
12.8222,4017
12.8427,3777
12.8632,4473
12.8836,3688
12.9041,3966
12.9246,3496
12.9451,3830
12.9656,4039
12.9861,3951
13.0066,3153
13.027,4507
13.0475,3864
13.068,4174
13.0885,3873
13.109,4146
13.1295,3778
13.15,3637
13.1705,3764
13.1909,3564
13.2114,3528
13.2319,3093
13.2524,4237
13.2729,4545
13.2934,3792
13.3139,3504
13.3343,3841
13.3548,3304
13.3753,4089
13.3958,3288
13.4163,3531
13.4368,3809
13.4573,3857
13.4777,4385
13.4982,4667
13.5187,5075
13.5392,4974
13.5597,4912
13.5802,4406
13.6007,3337
13.6212,3865
13.6416,3401
13.6621,3387
13.6826,3660
13.7031,3319
13.7236,3250
13.7441,3997
13.7646,3909
13.785,4105
13.8055,4033
13.826,3371
13.8465,3577
13.867,3618
13.8875,3514
13.908,3172
13.9284,3500
13.9489,3588
13.9694,3994
13.9899,3717
14.0104,3796
14.0309,3771
14.0514,4130
14.0719,3578
14.0923,3288
14.1128,3512
14.1333,3451
14.1538,3349
14.1743,3566
14.1948,3251
14.2153,3351
14.2357,3568
14.2562,3839
14.2767,3653
14.2972,3523
14.3177,3726
14.3382,3943
14.3587,4595
14.3792,3461
14.3996,4145
14.4201,3438
14.4406,4291
14.4611,4083
14.4816,4548
14.5021,4118
14.5226,4025
14.543,3158
14.5635,3539
14.584,3099
14.6045,2994
14.625,3028
14.6455,3090
14.666,4171
14.6864,3788
14.7069,4128
14.7274,3630
14.7479,4756
14.7684,4098
14.7889,3587
14.8094,3948
14.8299,3490
14.8503,3288
14.8708,3912
14.8913,3675
14.9118,3617
14.9323,3798
14.9528,4247
14.9733,3823
14.9937,3947
15.0142,4066
15.0347,3259
15.0552,3662
15.0757,4300
15.0962,4256
15.1167,2881
15.1372,3878
15.1576,3784
15.1781,3570
15.1986,3934
15.2191,3409
15.2396,3728
15.2601,3606
15.2806,3426
15.301,4069
15.3215,3894
15.342,4150
15.3625,3516
15.383,3425
15.4035,3761
15.424,3664
15.4444,2831
15.4649,4414
15.4854,4017
15.5059,4091
15.5264,3802
15.5469,3644
15.5674,3856
15.5879,4671
15.6083,7401
15.6288,15353
15.6493,24700
15.6698,32711
15.6903,29201
15.7108,22225
15.7313,12886
15.7517,9032
15.7722,7382
15.7927,6288
15.8132,4801
15.8337,4520
15.8542,4939
15.8747,4255
15.8952,5390
15.9156,5105
15.9361,3901
15.9566,3164
15.9771,3920
15.9976,3759
16.0181,4419
16.0386,4659
16.059,3712
16.0795,3980
16.1,4032
16.1205,3748
16.141,4799
16.1615,5153
16.182,5155
16.2024,5033
16.2229,5391
16.2434,4468
16.2639,4324
16.2844,4269
16.3049,4065
16.3254,3802
16.3458,3729
16.3663,3627
16.3868,3459
16.4073,3764
16.4278,4205
16.4483,4049
16.4688,3633
16.4892,3531
16.5097,4596
16.5302,4563
16.5507,5269
16.5712,5125
16.5917,3646
16.6122,4736
16.6327,4213
16.6532,3307
16.6736,3049
16.6941,3851
16.7146,4041
16.7351,3928
16.7556,3243
16.7761,2831
16.7966,3518
16.817,3380
16.8375,3928
16.858,3769
16.8785,4007
16.899,2749
16.9195,4207
16.94,4092
16.9604,3125
16.9809,3715
17.0014,4249
17.0219,3758
17.0424,3561
17.0629,3382
17.0834,3283
17.1039,4037
17.1243,4291
17.1448,4786
17.1653,4409
17.1858,4570
17.2063,4752
17.2268,3912
17.2473,4281
17.2677,3741
17.2882,3999
17.3087,4204
17.3292,3596
17.3497,3590
17.3702,3824
17.3907,3929
17.4111,4169
17.4316,4598
17.4521,3945
17.4726,4676
17.4931,3356
17.5136,3586
17.5341,3879
17.5546,3918
17.575,3745
17.5955,3268
17.616,3753
17.6365,3362
17.657,3531
17.6775,3656
17.698,3569
17.7184,4440
17.7389,3747
17.7594,3755
17.7799,3724
17.8363,3132
17.8518,3943
17.8672,4057
17.8827,4355
17.8981,3495
17.9135,4405
17.929,3177
17.9444,4728
17.9599,3694
17.9753,4264
17.9908,3305
18.0062,3677
18.0217,3738
18.0371,3850
18.0526,3922
18.068,3851
18.0834,4394
18.0989,4482
18.1143,4016
18.1298,4357
18.1452,4453
18.1607,4218
18.1761,6162
18.1915,7082
18.207,10102
18.2224,10943
18.2379,10623
18.2533,11941
18.2688,8370
18.2842,7388
18.2997,7303
18.3151,6169
18.3306,5429
18.346,5627
18.3615,6032
18.3769,5422
18.3923,5708
18.4078,5312
18.4232,5081
18.4387,4560
18.4541,5391
18.4696,4001
18.485,4164
18.5005,4641
18.5159,4392
18.5313,4741
18.5468,4464
18.5622,4042
18.5777,3595
18.5931,4192
18.6086,4157
18.624,4340
18.6395,3844
18.6549,4640
18.6704,4568
18.6858,4946
18.7012,4129
18.7167,4220
18.7321,4771
18.7476,4172
18.763,3852
18.7785,3799
18.7939,4300
18.8094,3986
18.8248,4249
18.8402,4854
18.8557,4385
18.8711,4193
18.8866,3574
18.902,4111
18.9175,4871
18.9329,4487
18.9484,3334
18.9638,3386
18.9793,3073
18.9947,3545
19.0101,4049
19.0256,4327
19.041,3428
19.0565,3619
19.0719,3331
19.0874,4328
19.1028,4495
19.1183,4074
19.1337,4469
19.1491,4302
19.1646,4354
19.18,3781
19.1955,4134
19.2109,3995
19.2264,3548
19.2418,3884
19.2573,3530
19.2727,4924
19.2882,4381
19.3036,3445
19.319,2947
19.3345,3805
19.3499,4366
19.3654,4497
19.3808,4131
19.3963,3737
19.4117,3809
19.4272,4428
19.4426,3715
19.458,3774
19.4735,4068
19.4889,4082
19.5044,4416
19.5198,4080
19.5353,3875
19.5507,4555
19.5662,4375
19.5816,3900
19.597,4137
19.6125,4123
19.6279,4007
19.6434,3794
19.6588,4168
19.6743,4685
19.6897,3561
19.7052,3405
19.7206,4310
19.7361,3762
19.7515,3813
19.7669,3917
19.7824,3509
19.7978,4475
19.8133,4044
19.8287,3950
19.8442,4775
19.8596,3633
19.8751,3888
19.8905,3223
19.9059,4205
19.9214,3929
19.9368,3295
19.9523,3581
19.9677,3388
19.9832,3626
19.9986,3696
20.0141,3682
20.0295,3951
20.045,4451
20.0604,3991
20.0758,4584
20.0913,3301
20.1067,4133
20.1222,3279
20.1376,3775
20.1531,4177
20.1685,3557
20.1839,4539
20.1994,3836
20.2148,4422
20.2303,4062
20.2457,3591
20.2612,3718
20.2766,3084
20.2921,3562
20.3075,3614
20.323,4551
20.3384,3776
20.3539,3878
20.3693,3425
20.3847,4017
20.4002,4483
20.4156,3699
20.4311,3795
20.4465,2895
20.462,4459
20.4774,4160
20.4929,4509
20.5083,4416
20.5237,4060
20.5392,4021
20.5546,3441
20.5701,4120
20.5855,4439
20.601,4170
20.6164,3296
20.6319,4389
20.6473,3631
20.6628,3970
20.6782,4312
20.6936,4129
20.7091,4244
20.7245,3428
20.74,3602
20.7554,4115
20.7708,3733
20.7863,4190
20.8018,4209
20.8172,4795
20.8326,3748
20.8481,4421
20.8635,4663
20.879,4193
20.8944,4848
20.9099,4088
20.9253,3786
20.9408,4508
20.9562,4349
20.9716,4107
20.9871,3487
21.0025,3691
21.018,3888
21.0334,4705
21.0489,4440
21.0643,4199
21.0798,4239
21.0952,5011
21.1107,4498
21.1261,4646
21.1415,3896
21.157,4252
21.1724,3285
21.1879,4802
21.2033,4354
21.2188,4692
21.2342,4409
21.2497,4067
21.2651,3998
21.2805,3976
21.296,3982
21.3114,4284
21.3269,5120
21.3423,3961
21.3578,4319
21.3732,4167
21.3887,4656
21.4041,3857
21.4196,4441
21.435,4001
21.4504,3958
21.4659,3633
21.4813,4230
21.4968,4165
21.5122,4169
21.5277,3811
21.5431,4379
21.5586,5031
21.574,5859
21.5894,6082
21.6049,6716
21.6203,6773
21.6358,6716
21.6512,6178
21.6667,6291
21.6821,7745
21.6976,11270
21.713,16482
21.7285,21052
21.7439,22670
21.7593,22285
21.7748,22274
21.7902,19275
21.8057,14631
21.8211,12931
21.8366,11356
21.852,10402
21.8675,9114
21.8829,8269
21.8983,8393
21.9138,7649
21.9292,6821
21.9447,6532
21.9601,5985
21.9756,6498
21.991,6426
22.0065,6160
22.0219,6273
22.0374,5703
22.0528,5321
22.0682,6393
22.0837,5592
22.0991,5679
22.1146,5939
22.13,6620
22.1455,5353
22.1609,5887
22.1763,5056
22.1918,6990
22.2072,4970
22.2227,5750
22.2381,6406
22.2536,5382
22.269,4740
22.2845,4739
22.2999,5021
22.3154,5770
22.3308,5626
22.3462,5069
22.3617,4689
22.3771,4543
22.3926,4736
22.408,4828
22.4235,4661
22.4389,4454
22.4544,4592
22.4698,5235
22.4853,4336
22.5007,4639
22.5161,4362
22.5316,4428
22.547,4945
22.5625,5465
22.5779,3941
22.5934,4421
22.6088,5303
22.6243,4652
22.6397,4385
22.6551,5012
22.6706,4129
22.686,5113
22.7015,4715
22.7169,4956
22.7324,4286
22.7478,3855
22.7632,4495
22.7787,4585
22.7942,4169
22.8096,4627
22.825,4340
22.8405,4528
22.8559,4776
22.8714,5895
22.8868,5100
22.9023,5107
22.9177,4417
22.9332,4859
22.9486,4892
22.964,5255
22.9795,4748
22.9949,5325
23.0104,5058
23.0258,4847
23.0413,4599
23.0567,4698
23.0722,4997
23.0876,4523
23.1031,4292
23.1185,4925
23.1339,5096
23.1494,4816
23.1648,5210
23.1803,4119
23.1957,4898
23.2112,4704
23.2266,5250
23.2421,4485
23.2575,4491
23.2729,4425
23.2884,5471
23.3038,3823
23.3193,4225
23.3347,4487
23.3502,4163
23.3656,4738
23.3811,4495
23.3965,5051
23.412,5655
23.4274,5760
23.4428,5844
23.4583,4684
23.4737,5396
23.4892,4982
23.5046,4754
23.5201,4681
23.5355,4329
23.551,4747
23.5664,4342
23.5818,4801
23.5973,3928
23.6127,4519
23.6282,5290
23.6436,4982
23.6591,5103
23.6745,4443
23.69,4423
23.7054,4732
23.7209,4576
23.7363,4782
23.7517,4799
23.7672,5099
23.7826,5164
23.834,4205
23.8545,4987
23.875,4479
23.8955,4707
23.916,5019
23.9365,4396
23.957,4232
23.9775,4359
23.9979,4991
24.0184,4356
24.0389,4829
24.0594,4132
24.0799,4262
24.1004,4633
24.1209,4721
24.1414,5275
24.1619,4871
24.1824,4794
24.2029,4251
24.2233,4708
24.2438,4503
24.2643,5271
24.2848,4915
24.3053,5273
24.3258,4836
24.3463,4920
24.3668,4484
24.3873,4448
24.4078,5264
24.4283,4895
24.4487,4488
24.4692,5859
24.4897,4993
24.5102,4346
24.5307,4862
24.5512,5073
24.5717,5861
24.5922,5507
24.6127,4770
24.6332,5232
24.6537,4228
24.6742,5036
24.6946,5182
24.7151,4853
24.7356,5687
24.7561,4491
24.7766,4610
24.7971,4608
24.8176,4787
24.8381,4985
24.8586,4793
24.879,4775
24.8996,4773
24.92,5123
24.9405,5047
24.961,4755
24.9815,5238
25.002,4582
25.0225,5250
25.043,5992
25.0635,5599
25.084,5139
25.1045,5300
25.125,4024
25.1455,4493
25.1659,4638
25.1864,4993
25.2069,5201
25.2274,4727
25.2479,4882
25.2684,4811
25.2889,6060
25.3094,5035
25.3299,5267
25.3504,5211
25.3709,5899
25.3913,5006
25.4118,5601
25.4323,5229
25.4528,4602
25.4733,5691
25.4938,4880
25.5143,5112
25.5348,5645
25.5553,4927
25.5758,6008
25.5963,5960
25.6168,4806
25.6372,6960
25.6577,5262
25.6782,5421
25.6987,5920
25.7192,5844
25.7397,5759
25.7602,5087
25.7807,5486
25.8012,5247
25.8217,4562
25.8422,4983
25.8626,5088
25.8831,4970
25.9036,5588
25.9241,4956
25.9446,5331
25.9651,6322
25.9856,5353
26.0061,4313
26.0266,5291
26.0471,6235
26.0676,5939
26.0881,6569
26.1085,5383
26.129,6796
26.1495,6361
26.17,5904
26.1905,5231
26.211,5127
26.2315,6075
26.252,6179
26.2725,5913
26.293,5380
26.3135,6297
26.3339,6108
26.3544,5392
26.3749,5486
26.3954,4897
26.4159,5755
26.4364,5140
26.4569,5074
26.4774,4909
26.4979,5919
26.5184,5712
26.5389,4800
26.5594,6077
26.5798,5360
26.6003,5732
26.6208,5286
26.6413,5288
26.6618,5568
26.6823,5882
26.7028,5662
26.7233,6225
26.7438,6849
26.7643,6236
26.7848,5634
26.8052,5981
26.8257,5652
26.8462,6199
26.8667,5692
26.8872,5096
26.9077,5986
26.9282,5623
26.9487,5868
26.9692,6235
26.9897,5925
27.0102,5164
27.0306,6352
27.0511,6535
27.0716,6483
27.0921,5646
27.1126,5927
27.1331,5983
27.1536,5603
27.1741,6597
27.1946,5629
27.2151,5986
27.2356,6438
27.2561,5944
27.2765,5456
27.297,5663
27.3175,6237
27.338,6353
27.3585,5970
27.379,5686
27.3995,6397
27.42,4999
27.4405,5544
27.461,6259
27.4815,6546
27.5019,5703
27.5224,5083
27.5429,6128
27.5634,6618
27.5839,6271
27.6044,6427
27.6249,5861
27.6454,5667
27.6659,5958
27.6864,5646
27.7069,5806
27.7274,6749
27.7478,6865
27.7683,5596
27.7888,6563
27.8093,6139
27.8298,5914
27.8503,6566
27.8708,6364
27.8913,6438
27.9118,5748
27.9323,5528
27.9528,5736
27.9732,6510
27.9937,6216
28.0142,5931
28.0347,6163
28.0552,6419
28.0757,6351
28.0962,5871
28.1167,6497
28.1372,6287
28.1577,5919
28.1782,6236
28.1987,6428
28.2191,6475
28.2396,7035
28.2601,6536
28.2806,7279
28.3011,6547
28.3216,5780
28.3421,6670
28.3626,7257
28.3831,7076
28.4036,6712
28.4241,6360
28.4445,5939
28.465,6381
28.4855,6604
28.506,6552
28.5265,6779
28.547,6665
28.5675,6027
28.588,7003
28.6085,6763
28.629,7264
28.6495,6817
28.67,6806
28.6904,7157
28.7109,6122
28.7314,5950
28.7519,6271
28.7724,6453
28.7929,6692
28.8134,6000
28.8339,6747
28.8544,6531
28.8749,6375
28.8954,7076
28.9158,7054
28.9363,7882
28.9568,7203
28.9773,8345
28.9978,9376
29.0183,10627
29.0388,10892
29.0593,10681
29.0798,9655
29.1003,8862
29.1208,8167
29.1413,8582
29.1617,6862
29.1822,8038
29.2027,8212
29.2232,7862
29.2437,7018
29.2642,7246
29.2847,6304
29.3052,6511
29.3257,7931
29.3462,7356
29.3667,6661
29.3871,7117
29.4076,6595
29.4281,6988
29.4486,6895
29.4691,6658
29.4896,6883
29.5101,7545
29.5306,7425
29.5511,6724
29.5716,7057
29.5921,7479
29.6126,8070
29.633,13197
29.6535,17497
29.674,19948
29.6945,20502
29.715,17988
29.7355,14916
29.756,12287
29.7765,9596
29.797,9192
29.8175,8684
29.838,8935
29.8584,8026
29.8789,8039
29.8994,7940
29.9199,7978
29.9404,8129
29.9609,8269
29.9814,7679
30.0019,7379
30.0224,7666
30.0429,6762
30.0634,6881
30.0838,7181
30.1043,7480
30.1248,8144
30.1453,6304
30.1658,6994
30.1863,7065
30.2068,7673
30.2273,7162
30.2478,7019
30.2683,7294
30.2888,7000
30.3093,7670
30.3297,7912
30.3502,6994
30.3707,7942
30.3912,7348
30.4117,7114
30.4322,7419
30.4527,7652
30.4732,7544
30.4937,6157
30.5142,7500
30.5347,8210
30.5551,7888
30.5756,7336
30.5961,8254
30.6166,8057
30.6371,8336
30.6576,7609
30.6781,8031
30.6986,6960
30.7191,8427
30.7396,7351
30.7601,7371
30.7806,7067
30.801,8164
30.8215,7790
30.842,8670
30.8625,7397
30.883,6963
30.9035,6995
30.924,7153
30.9445,8012
30.965,6954
30.9855,7546
31.006,8140
31.0264,8203
31.0469,8047
31.0674,7905
31.0879,9269
31.1084,8104
31.1289,7609
31.1494,7646
31.1699,8102
31.1904,8814
31.2109,7930
31.2314,9288
31.2519,7121
31.2723,7930
31.2928,7698
31.3133,7562
31.3338,8033
31.3543,7922
31.3748,8258
31.3953,7098
31.4158,7016
31.4363,7653
31.4568,8547
31.4773,8247
31.4977,8254
31.5182,7724
31.5387,7247
31.5592,7550
31.5797,9030
31.6002,7812
31.6207,8799
31.6412,8168
31.6617,7973
31.6822,8037
31.7027,7736
31.7232,8777
31.7436,8218
31.7641,8188
31.7846,8161
31.8051,7380
31.8256,8483
31.8461,7796
31.8666,8101
31.9281,7973
31.9486,8523
31.969,8692
31.9895,8964
32.01,8429
32.0305,8470
32.051,8428
32.0715,9334
32.092,10673
32.1125,10728
32.133,9790
32.1534,9429
32.1739,8999
32.1944,8992
32.2149,8457
32.2354,8867
32.2559,8455
32.2764,8830
32.2969,8573
32.3174,8212
32.3379,9424
32.3584,8774
32.3789,8398
32.3993,8568
32.4198,9415
32.4403,9059
32.4608,8216
32.4813,8507
32.5018,8798
32.5223,9021
32.5428,8225
32.5633,9103
32.5838,8362
32.6043,8854
32.6247,9434
32.6452,8791
32.6657,8668
32.6862,9916
32.7067,10552
32.7272,9503
32.7477,10137
32.7682,10304
32.7887,9377
32.8092,9949
32.8297,9883
32.8501,8885
32.8706,9954
32.8911,9491
32.9116,8404
32.9321,9200
32.9526,8681
32.9731,9075
32.9936,8925
33.0141,8262
33.0346,8948
33.0551,8803
33.0755,9750
33.096,9610
33.1165,9541
33.137,10914
33.1575,9069
33.178,9025
33.1985,10118
33.219,10045
33.2395,9518
33.26,8169
33.2805,9425
33.3009,8989
33.3214,9359
33.3419,7677
33.3624,9899
33.3829,8839
33.4034,10458
33.4239,10065
33.4444,9752
33.4649,9328
33.4853,9615
33.5059,9625
33.5263,9332
33.5468,10178
33.5673,9170
33.5878,10118
33.6083,9985
33.6288,9261
33.6493,10066
33.6698,9307
33.6903,9637
33.7107,9688
33.7312,9286
33.7517,9815
33.7722,9631
33.7927,8624
33.8132,9502
33.8337,8861
33.8542,10920
33.8747,9580
33.8952,9751
33.9156,9854
33.9361,9820
33.9566,8152
33.9771,10139
33.9976,10991
34.0181,9913
34.0386,9992
34.0591,10234
34.0796,10324
34.1001,10168
34.1206,9924
34.1411,9276
34.1615,9674
34.182,10382
34.2025,10133
34.223,9550
34.2435,10668
34.264,11176
34.2845,10501
34.305,9527
34.3255,10271
34.346,10245
34.3665,10644
34.3869,10198
34.4074,11827
34.4279,9756
34.4484,10991
34.4689,12313
34.4894,10531
34.5099,11248
34.5304,10648
34.5509,10983
34.5714,11608
34.5919,10599
34.6123,11298
34.6328,9762
34.6533,10884
34.6738,10886
34.6943,11341
34.7148,11104
34.7353,9584
34.7558,11706
34.7763,11814
34.7968,10644
34.8173,11010
34.8377,11311
34.8582,11013
34.8787,11374
34.8992,11193
34.9197,10711
34.9402,11844
34.9607,10876
34.9812,11717
35.0017,10993
35.0222,12213
35.0427,11071
35.0631,11885
35.0836,11753
35.1041,12286
35.1246,11332
35.1451,11802
35.1656,12261
35.1861,11814
35.2066,11728
35.2271,11611
35.2476,12233
35.2681,11086
35.2885,13475
35.309,12180
35.3295,11735
35.35,12097
35.3705,11610
35.391,12444
35.4115,11777
35.432,13940
35.4525,12803
35.473,12844
35.4935,12476
35.5139,12575
35.5344,13748
35.5549,13741
35.5754,14208
35.5959,14686
35.6164,13584
35.6369,15637
35.6574,13567
35.6779,13152
35.6984,13034
35.7189,14510
35.7393,13291
35.7598,14403
35.7803,14036
35.8008,13966
35.8213,14981
35.8418,14425
35.8623,15078
35.8828,14346
35.9033,15215
35.9237,14826
35.9442,14406
35.9647,14726
35.9852,14822
36.0057,16200
36.0262,16171
36.0467,15911
36.0672,14556
36.0877,15087
36.1082,15433
36.1287,14248
36.1491,15856
36.1696,14452
36.1901,16122
36.2106,15368
36.2311,15660
36.2516,15742
36.2721,16045
36.2926,15994
36.3131,15804
36.3336,16645
36.3541,16039
36.3745,15782
36.395,17017
36.4155,16728
36.436,15589
36.4565,17163
36.477,16111
36.4975,15902
36.518,17076
36.5385,16408
36.559,16733
36.5795,17140
36.6,17449
36.6204,17052
36.6409,17280
36.6614,17189
36.6819,18451
36.7024,19150
36.7229,16560
36.7434,16969
36.7639,17518
36.7844,18522
36.8049,18548
36.8254,17816
36.8458,17775
36.8663,17813
36.8868,18267
36.9073,20021
36.9278,19241
36.9483,20367
36.9688,19907
36.9893,18895
37.0098,17791
37.0303,19407
37.0507,18940
37.0712,19655
37.0917,20268
37.1122,18790
37.1327,17857
37.1532,17902
37.1737,20008
37.1942,18590
37.2147,19555
37.2352,19865
37.2557,18717
37.2761,19693
37.2966,20802
37.3171,19388
37.3376,18642
37.3581,19222
37.3786,20196
37.3991,19083
37.4196,20248
37.4401,20521
37.4606,20729
37.4811,22508
37.5015,20498
37.522,21231
37.5425,22117
37.563,21316
37.5835,23584
37.604,20654
37.6245,22391
37.645,22574
37.6655,21019
37.6859,22599
37.7065,21009
37.7269,24032
37.7474,23068
37.7679,23130
37.7884,22827
37.8089,23373
37.8294,22562
37.8499,22138
37.8704,21969
37.8909,22041
37.9113,23026
37.9319,23308
37.9523,23727
37.9728,23378
37.9933,23259
38.0138,24157
38.0343,24781
38.0548,24593
38.0753,24617
38.0958,26216
38.1163,24249
38.1367,24542
38.1572,24015
38.1777,25119
38.1982,24452
38.2187,25784
38.2392,26063
38.2597,26859
38.2802,28249
38.3007,27608
38.3212,25880
38.3417,27481
38.3622,26545
38.3826,28319
38.4031,26125
38.4236,26295
38.4441,27657
38.4646,25072
38.4851,26916
38.5056,28536
38.5261,27638
38.5466,27464
38.5671,27589
38.5876,28227
38.608,27563
38.6285,28682
38.649,28710
38.6695,29091
38.69,27614
38.7105,27756
38.731,29049
38.7515,29327
38.772,29212
38.7925,29703
38.813,29311
38.8334,30130
38.8539,28795
38.8744,31321
38.8949,30372
38.9154,31022
38.9359,29470
38.9564,29504
38.9769,29425
38.9974,32923
39.0179,31206
39.0384,33119
39.0588,32294
39.0793,32418
39.0998,32791
39.1203,32971
39.1408,32525
39.1613,31843
39.1818,32661
39.2023,32533
39.2228,32662
39.2433,34519
39.2637,34110
39.2842,34643
39.3047,33701
39.3252,33875
39.3457,34499
39.3662,34581
39.3867,34115
39.4072,35507
39.4277,35852
39.4482,35369
39.4687,35150
39.4891,35797
39.5096,36080
39.5301,35524
39.5506,36091
39.5711,37475
39.5916,35797
39.6121,38130
39.6326,36524
39.6531,37853
39.6735,37277
39.6941,37953
39.7145,38285
39.735,38829
39.7555,37087
39.776,38279
39.7965,38774
39.817,38867
39.8375,40104
39.858,39512
39.8785,39204
39.9299,39103
39.9403,39781
39.9507,40414
39.9611,41421
39.9715,39681
39.9819,40626
39.9923,41328
40.0027,41559
40.0132,40764
40.0236,41454
40.034,42826
40.0444,40637
40.0548,41749
40.0652,42989
40.0756,41839
40.086,41715
40.0965,43828
40.1069,43829
40.1173,42893
40.1277,44166
40.1381,44300
40.1485,41940
40.1589,42739
40.1693,41959
40.1797,44646
40.1902,44708
40.2006,44619
40.211,44706
40.2214,43790
40.2318,46643
40.2422,45112
40.2526,44266
40.263,45776
40.2735,46933
40.2839,45376
40.2943,44426
40.3047,44963
40.3151,44269
40.3255,46289
40.3359,44862
40.3463,46163
40.3567,44814
40.3672,45263
40.3776,45073
40.388,46033
40.3984,45766
40.4088,49931
40.4192,45571
40.4296,46100
40.44,47638
40.4504,47404
40.4609,49378
40.4713,49293
40.4817,48658
40.4921,48056
40.5025,45573
40.5129,47213
40.5233,46982
40.5337,45753
40.5442,48884
40.5545,50892
40.565,48832
40.5754,49391
40.5858,49350
40.5962,51397
40.6066,50203
40.617,50910
40.6274,49487
40.6379,49466
40.6483,47741
40.6587,49755
40.6691,50377
40.6795,51346
40.6899,51597
40.7003,49910
40.7107,50943
40.7212,50631
40.7315,49455
40.742,53234
40.7524,53005
40.7628,51573
40.7732,52766
40.7836,50639
40.794,51604
40.8044,52940
40.8149,53346
40.8253,52806
40.8357,52569
40.8461,54533
40.8565,50986
40.8669,52957
40.8773,54294
40.8877,54487
40.8982,55401
40.9086,51537
40.919,56612
40.9294,54739
40.9398,56121
40.9502,54770
40.9606,55665
40.971,56166
40.9814,57710
40.9918,59301
41.0023,56167
41.0127,55441
41.0231,58334
41.0335,57950
41.0439,55731
41.0543,56568
41.0647,56063
41.0752,54358
41.0856,55499
41.096,57938
41.1064,57862
41.1168,57605
41.1272,59645
41.1376,57884
41.148,59418
41.1584,60363
41.1688,57025
41.1793,58094
41.1897,60974
41.2001,59878
41.2105,62640
41.2209,62006
41.2313,61894
41.2417,59843
41.2521,61040
41.2626,58727
41.273,60230
41.2834,61335
41.2938,62442
41.3042,59976
41.3146,62620
41.325,59794
41.3354,61667
41.3458,61798
41.3563,60379
41.3667,59662
41.3771,65154
41.3875,62237
41.3979,62102
41.4083,62255
41.4187,63131
41.4291,62131
41.4396,63440
41.45,63512
41.4604,64176
41.4708,64289
41.4812,63385
41.4916,64945
41.502,63819
41.5124,66072
41.5229,67406
41.5333,67644
41.5437,65194
41.5541,65745
41.5645,67360
41.5749,69191
41.5853,66707
41.5957,68537
41.6061,66507
41.6166,67187
41.627,70789
41.6374,68891
41.6478,69727
41.6582,67867
41.6686,69140
41.679,71641
41.6894,72101
41.6999,69080
41.7103,71333
41.7207,70608
41.7311,71305
41.7415,70310
41.7519,69869
41.7623,69851
41.7727,76247
41.7831,72100
41.7936,72721
41.804,74269
41.8144,71342
41.8248,76058
41.8352,75876
41.8456,74287
41.856,74835
41.8664,74915
41.8769,75854
41.8873,78073
41.8977,76521
41.9081,76095
41.9185,76987
41.9289,76317
41.9393,77531
41.9497,77451
41.9601,76574
41.9706,77546
41.981,80858
41.9914,79156
42.0018,77979
42.0122,80823
42.0226,80592
42.033,80976
42.0434,80902
42.0538,80436
42.0643,81823
42.0747,80247
42.0851,80285
42.0955,83986
42.1059,81693
42.1163,82815
42.1267,82257
42.1371,82091
42.1476,83789
42.158,85726
42.1684,85257
42.1788,85234
42.1892,86526
42.1996,84158
42.21,86931
42.2204,86897
42.2308,88014
42.2413,88029
42.2517,86365
42.2621,84880
42.2725,86656
42.2829,87208
42.2933,86812
42.3037,90686
42.3141,86794
42.3246,89520
42.3349,90122
42.3454,88491
42.3558,89974
42.3662,92401
42.3766,92439
42.387,94603
42.3974,93041
42.4078,93045
42.4183,93552
42.4287,94156
42.4391,93115
42.4495,95283
42.4599,96059
42.4703,96237
42.4807,95309
42.4911,94876
42.5016,97883
42.5119,96577
42.5224,97658
42.5328,98058
42.5432,99140
42.5536,99664
42.564,100478
42.5744,100766
42.5848,100070
42.5953,99134
42.6057,96608
42.6161,98122
42.6265,100946
42.6369,101988
42.6473,100937
42.6577,101420
42.6681,103417
42.6786,107277
42.689,103742
42.6994,101328
42.7098,102637
42.7202,105525
42.7306,104804
42.741,102138
42.7514,106711
42.7618,105734
42.7723,108218
42.7827,109087
42.7931,109182
42.8035,107970
42.8139,109431
42.8243,109715
42.8347,107845
42.8451,107765
42.8556,109722
42.866,110351
42.8764,108797
42.8868,111664
42.8972,113070
42.9076,111137
42.918,112688
42.9284,110519
42.9388,117456
42.9492,113981
42.9597,113845
42.9701,114783
42.9805,114852
42.9909,116265
43.0013,117614
43.0117,117245
43.0221,116315
43.0325,115793
43.043,116392
43.0534,119300
43.0638,119852
43.0742,120496
43.0846,119899
43.095,119476
43.1054,122773
43.1158,122006
43.1262,120773
43.1367,121342
43.1471,122032
43.1575,122635
43.1679,124285
43.1783,125344
43.1887,124686
43.1991,125341
43.2095,125954
43.22,127585
43.2304,126456
43.2408,128571
43.2512,130843
43.2616,131578
43.272,131359
43.2824,129456
43.2928,129723
43.3033,132135
43.3137,131926
43.3241,130521
43.3345,135304
43.3449,131272
43.3553,129455
43.3657,129424
43.3761,131250
43.3865,132983
43.397,136070
43.4074,135113
43.4178,138262
43.4282,137081
43.4386,137356
43.449,139591
43.4594,141100
43.4698,142338
43.4803,141953
43.4907,139006
43.5011,141187
43.5115,139827
43.5219,142274
43.5323,143647
43.5427,143757
43.5531,143722
43.5635,143938
43.574,146459
43.5844,145992
43.5948,146368
43.6052,143896
43.6156,144284
43.626,147318
43.6364,148267
43.6468,149341
43.6573,149394
43.6677,149858
43.6781,152832
43.6885,153328
43.6989,154898
43.7093,154395
43.7197,155714
43.7301,155945
43.7405,154920
43.751,153895
43.7614,158940
43.7718,158368
43.7822,156836
43.7926,162110
43.803,162789
43.8134,164031
43.8238,161863
43.8342,163395
43.8447,166940
43.8551,163812
43.8655,166594
43.8759,162325
43.8863,166907
43.8967,166978
43.9071,166158
43.9175,176242
43.928,171489
43.9384,171691
43.9488,171558
43.9592,175279
43.9696,175405
43.98,175880
43.9904,179681
44.0008,179501
44.0112,177723
44.0217,180636
44.0321,179933
44.0425,184150
44.0529,182494
44.0633,181614
44.0737,183561
44.0841,184305
44.0945,183570
44.105,183273
44.1153,182926
44.1258,189052
44.1362,186124
44.1466,186079
44.157,188636
44.1674,193324
44.1778,195417
44.1882,190191
44.1987,194682
44.2091,197443
44.2195,193730
44.2299,197301
44.2403,195152
44.2507,200029
44.2611,198494
44.2715,198985
44.282,204247
44.2923,204675
44.3028,205213
44.3132,205220
44.3236,201771
44.334,203510
44.3444,206437
44.3548,204649
44.3652,209378
44.3757,211850
44.3861,213004
44.3965,213413
44.4069,211932
44.4173,208244
44.4277,211384
44.4381,216962
44.4485,216248
44.459,217344
44.4693,217673
44.4798,220041
44.4902,219598
44.5006,218525
44.511,222049
44.5214,222936
44.5318,226327
44.5422,223511
44.5527,225208
44.5631,228200
44.5735,229375
44.5839,224839
44.5943,229390
44.6047,230223
44.6151,233877
44.6255,234352
44.6359,229408
44.6464,231552
44.6568,233741
44.6672,238930
44.6776,240205
44.688,239318
44.6984,242759
44.7088,241595
44.7192,244124
44.7296,241563
44.7401,248940
44.7505,241807
44.7609,251982
44.7713,249588
44.7817,253444
44.7921,251690
44.8025,254250
44.8129,255599
44.8234,258271
44.8338,254699
44.8442,254354
44.8546,256612
44.865,261511
44.8754,264357
44.8858,259236
44.8962,263983
44.9066,262699
44.9171,266889
44.9275,269909
44.9379,272057
44.9483,272445
44.9587,272448
44.9691,269911
44.9795,267795
44.9899,275729
45.0004,270794
45.0108,275716
45.0212,275293
45.0316,278998
45.042,278277
45.0524,283420
45.0628,284172
45.0732,286084
45.0836,284407
45.0941,287824
45.1045,284955
45.1149,289294
45.1253,294597
45.1357,290094
45.1461,294624
45.1565,297659
45.1669,298145
45.1774,297726
45.1878,296078
45.1982,303661
45.2086,298919
45.219,309053
45.2294,311415
45.2398,306596
45.2502,306067
45.2607,309699
45.2711,310240
45.2815,307082
45.2919,316516
45.3023,317175
45.3127,318209
45.3231,319602
45.3335,321936
45.3439,323893
45.3544,319749
45.3648,320664
45.3752,326410
45.3856,323475
45.396,325924
45.4064,333747
45.4168,327473
45.4272,329724
45.4376,329870
45.4481,329017
45.4585,334283
45.4689,336935
45.4793,338987
45.4897,344508
45.5001,341528
45.5105,341279
45.5209,345488
45.5314,349666
45.5418,352138
45.5522,346717
45.5626,357834
45.573,354633
45.5834,352355
45.5938,356340
45.6042,355216
45.6146,362478
45.6251,359164
45.6355,363440
45.6459,365709
45.6563,369402
45.6667,369418
45.6771,376040
45.6875,372821
45.6979,377864
45.7084,378871
45.7188,377956
45.7292,381001
45.7396,385831
45.75,386316
45.7604,382216
45.7708,384943
45.7812,390241
45.7916,400018
45.8021,389323
45.8125,389924
45.8229,395854
45.8333,397792
45.8437,401236
45.8541,396304
45.8645,395663
45.8749,402442
45.8854,410651
45.8958,413830
45.9062,417518
45.9166,411229
45.927,418238
45.9374,419696
45.9478,423969
45.9582,426960
45.9686,423526
45.9791,421485
45.9895,424378
45.9999,437474
46.0103,437812
46.0207,431954
46.0311,433862
46.0415,431664
46.0519,431893
46.0624,437069
46.0727,438433
46.0832,446693
46.0936,446988
46.104,451634
46.1144,449966
46.1248,459763
46.1352,459080
46.1456,458072
46.1561,463001
46.1665,462102
46.1769,467165
46.1873,462664
46.1977,464795
46.2081,464593
46.2185,467532
46.2289,468977
46.2394,473839
46.2497,483722
46.2602,485025
46.2706,481288
46.281,493146
46.2914,493334
46.3018,488430
46.3122,494686
46.3226,492877
46.3331,495242
46.3435,498175
46.3539,507026
46.3643,504303
46.3747,512763
46.3851,508917
46.3955,510266
46.4059,511627
46.4163,517314
46.4268,525567
46.4372,525874
46.4476,516860
46.458,520733
46.4684,524164
46.4788,529247
46.4892,534696
46.4996,536744
46.5101,532932
46.5205,534161
46.5309,545705
46.5413,543475
46.5517,547383
46.5621,549698
46.5725,549990
46.5829,554812
46.5933,556157
46.6038,554843
46.6142,570265
46.6246,563655
46.635,573126
46.6454,569410
46.6558,570711
46.6662,574014
46.6766,578405
46.687,590842
46.6975,598384
46.7079,601603
46.7183,601416
46.7287,591021
46.7391,603007
46.7495,602073
46.7599,605936
46.7703,604166
46.7808,608777
46.7912,602955
46.8016,617181
46.812,613688
46.8224,616511
46.8328,621024
46.8432,620126
46.8536,621924
46.864,633143
46.8745,632253
46.8849,635085
46.8953,636021
46.9057,642273
46.9161,650588
46.9265,656144
46.9369,659332
46.9473,655398
46.9578,668006
46.9682,664908
46.9786,670226
46.989,676399
46.9994,678518
47.0098,678141
47.0202,678114
47.0306,681552
47.0411,680599
47.0515,682513
47.0619,687201
47.0723,693591
47.0827,695830
47.0931,698456
47.1035,698955
47.1139,703980
47.1243,712032
47.1348,721898
47.1452,711856
47.1556,720629
47.166,724467
47.1764,722138
47.1868,725745
47.1972,731423
47.2076,732374
47.218,732993
47.2285,738493
47.2389,745105
47.2493,752222
47.2597,752501
47.2701,751387
47.2805,748845
47.2909,757647
47.3013,758476
47.3118,766294
47.3222,774562
47.3326,769582
47.343,778223
47.3534,782231
47.3638,785010
47.3742,788636
47.3846,788735
47.395,797179
47.4055,791304
47.4159,792847
47.4263,802979
47.4367,799814
47.4471,816388
47.4575,817172
47.4679,827165
47.4783,823230
47.4888,822007
47.4992,833904
47.5096,834197
47.52,836429
47.5304,838932
47.5408,842850
47.5512,838632
47.5616,840499
47.572,838143
47.5825,844007
47.5929,848097
47.6033,853704
47.6137,851403
47.6241,852073
47.6345,854003
47.6449,854545
47.6553,854409
47.6658,850696
47.6762,859697
47.6866,865453
47.697,859787
47.7074,855674
47.7178,865789
47.7282,858094
47.7386,871379
47.749,867046
47.7595,867341
47.7699,877971
47.7803,874873
47.7907,867573
47.8011,873738
47.8115,876232
47.8219,883153
47.8323,895575
47.8428,893755
47.8531,881065
47.8636,892461
47.874,894918
47.8844,906544
47.8948,897186
47.9052,901697
47.9156,892381
47.926,906850
47.9365,913016
47.9469,912499
47.9573,918386
47.9677,915498
47.9781,907593
47.9885,911096
47.9989,922057
48.0093,915968
48.0197,920953
48.0301,926699
48.0406,928831
48.051,940115
48.0614,931042
48.0718,929983
48.0822,934916
48.0926,940436
48.103,938047
48.1135,943801
48.1239,948994
48.1343,946719
48.1447,948244
48.1551,950504
48.1655,946108
48.1759,945964
48.1863,946172
48.1967,957578
48.2072,957311
48.2176,956776
48.228,965507
48.2384,964099
48.2488,968779
48.2592,972311
48.2696,961408
48.28,968408
48.2905,969488
48.3009,972820
48.3113,971462
48.3217,969845
48.3321,970444
48.3425,980181
48.3529,985582
48.3633,985358
48.3737,990593
48.3842,982383
48.3946,983005
48.405,983838
48.4154,990253
48.4258,999012
48.4362,997883
48.4466,992570
48.457,990423
48.4674,995441
48.4779,1005327
48.4883,995969
48.4987,991696
48.5091,1007518
48.5195,1012520
48.5299,1018485
48.5403,1010145
48.5507,1007794
48.5612,1015291
48.5716,1013699
48.582,1018874
48.5924,1007332
48.6028,1009561
48.6132,1013792
48.6236,1023414
48.634,1017218
48.6444,1023052
48.6549,1021096
48.6653,1027896
48.6757,1032391
48.6861,1018042
48.6965,1016555
48.7069,1028613
48.7173,1030205
48.7277,1030495
48.7382,1023167
48.7486,1031334
48.759,1033628
48.7694,1035646
48.7798,1039396
48.7902,1044447
48.8006,1047725
48.811,1044631
48.8214,1031375
48.8319,1047192
48.8423,1039424
48.8527,1046081
48.8631,1038580
48.8735,1042103
48.8839,1025188
48.8943,1042562
48.9047,1051169
48.9152,1048224
48.9256,1034378
48.936,1047302
48.9464,1058354
48.9568,1036131
48.9672,1055739
48.9776,1059578
48.988,1046702
48.9984,1058557
49.0089,1057440
49.0193,1061200
49.0297,1058587
49.0401,1055945
49.0505,1053708
49.0609,1062360
49.0713,1053857
49.0817,1065600
49.0922,1062316
49.1026,1058121
49.113,1072823
49.1234,1064151
49.1338,1070868
49.1442,1059624
49.1546,1079038
49.165,1067828
49.1754,1072699
49.1859,1080327
49.1963,1058997
49.2067,1079914
49.2171,1071636
49.2275,1064529
49.2379,1073852
49.2483,1073126
49.2587,1073480
49.2692,1071821
49.2796,1072391
49.29,1082315
49.3004,1073680
49.3108,1075108
49.3212,1073171
49.3316,1069330
49.342,1060962
49.3524,1063604
49.3629,1070800
49.3733,1077449
49.3837,1076912
49.3941,1083419
49.4045,1077025
49.4149,1081192
49.4253,1069919
49.4357,1072945
49.4462,1078990
49.4566,1071377
49.467,1088882
49.4774,1081957
49.4878,1079428
49.4982,1084496
49.5086,1083476
49.519,1087452
49.5294,1079264
49.5399,1088731
49.5503,1084115
49.5607,1081478
49.5711,1074230
49.5815,1088075
49.5919,1088519
49.6023,1090431
49.6127,1086773
49.6232,1088611
49.6336,1088385
49.644,1092214
49.6544,1089340
49.6648,1077207
49.6752,1087985
49.6856,1093922
49.696,1096835
49.7064,1079538
49.7169,1090489
49.7273,1087125
49.7377,1091716
49.7481,1082894
49.7585,1087969
49.7689,1096653
49.7793,1092375
49.7897,1095611
49.8001,1103225
49.8105,1091016
49.821,1092676
49.8314,1094604
49.8418,1101157
49.8522,1099262
49.8626,1097634
49.873,1102517
49.8834,1101037
49.8939,1103713
49.9043,1106138
49.9147,1099935
49.9251,1098610
49.9355,1094320
49.9459,1098240
49.9563,1102205
49.9667,1097603
49.9771,1101143
49.9876,1104447
49.998,1096438
50.0084,1091524
50.0188,1095155
50.0292,1101244
50.0396,1106658
50.05,1107559
50.0604,1114884
50.0709,1119858
50.0813,1105745
50.0917,1105308
50.1021,1107213
50.1125,1101159
50.1229,1092447
50.1333,1111019
50.1437,1103050
50.1541,1103797
50.1646,1105418
50.175,1108140
50.1854,1100795
50.1958,1102922
50.2062,1110245
50.2166,1106850
50.227,1102749
50.2374,1097778
50.2479,1100786
50.2583,1110587
50.2687,1115438
50.2791,1113436
50.2895,1117513
50.2999,1110654
50.3103,1118353
50.3207,1108326
50.3311,1119626
50.3416,1106127
50.352,1113511
50.3624,1121780
50.3728,1115184
50.3832,1118210
50.3936,1119729
50.404,1119213
50.4144,1116031
50.4248,1117886
50.4353,1120266
50.4457,1118971
50.4561,1118626
50.4665,1118961
50.4769,1121178
50.4873,1120354
50.4977,1121581
50.5081,1119598
50.5186,1117213
50.529,1113778
50.5394,1123572
50.5498,1116867
50.5602,1110691
50.5706,1115458
50.581,1119538
50.5914,1109397
50.6018,1118689
50.6123,1119075
50.6227,1122046
50.6331,1114471
50.6435,1115842
50.6539,1118851
50.6643,1121710
50.6747,1117452
50.6851,1122504
50.6956,1118926
50.706,1119800
50.7164,1122033
50.7268,1127653
50.7372,1114421
50.7476,1119791
50.758,1112661
50.7684,1126925
50.7788,1124315
50.7893,1120309
50.7997,1123038
50.8101,1138827
50.8205,1133958
50.8309,1133462
50.8413,1130631
50.8517,1137730
50.8621,1143982
50.8726,1127430
50.883,1140490
50.8934,1114223
50.9038,1131358
50.9142,1127338
50.9246,1122191
50.935,1126300
50.9454,1134692
50.9558,1130695
50.9663,1128055
50.9767,1124338
50.9871,1122989
50.9975,1138721
51.0079,1127662
51.0183,1137473
51.0287,1122916
51.0391,1133542
51.0496,1124779
51.06,1124047
51.0704,1123195
51.0808,1127432
51.0912,1126007
51.1016,1136199
51.112,1125598
51.1224,1119485
51.1328,1123066
51.1433,1133769
51.1537,1127293
51.1641,1136926
51.1745,1130497
51.1849,1138813
51.1953,1139636
51.2057,1136414
51.2161,1130323
51.2266,1142908
51.237,1138667
51.2474,1139869
51.2578,1139695
51.2682,1136360
51.2786,1129807
51.289,1128696
51.2994,1133566
51.3098,1139460
51.3203,1131722
51.3307,1141145
51.3411,1139738
51.3515,1120294
51.3619,1139868
51.3723,1138646
51.3827,1146409
51.3931,1141328
51.4035,1144679
51.414,1140456
51.4244,1137980
51.4348,1141462
51.4452,1143223
51.4556,1143663
51.466,1143538
51.4764,1137177
51.4868,1138012
51.4973,1139727
51.5077,1149625
51.5181,1144572
51.5285,1142939
51.5389,1137280
51.5493,1141875
51.5597,1146160
51.5701,1149879
51.5805,1154037
51.5909,1143938
51.6014,1137048
51.6118,1135219
51.6222,1143786
51.6326,1139468
51.643,1136443
51.6534,1143880
51.6638,1136606
51.6743,1142645
51.6847,1156221
51.6951,1141015
51.7055,1146960
51.7159,1143911
51.7263,1143289
51.7367,1150295
51.7471,1137314
51.7575,1140166
51.7679,1146622
51.7784,1152095
51.7888,1147698
51.7992,1137447
51.8096,1150838
51.82,1148434
51.8304,1148497
51.8408,1143801
51.8513,1144713
51.8617,1150202
51.8721,1150977
51.8825,1144913
51.8929,1133686
51.9033,1147061
51.9137,1140613
51.9241,1143116
51.9345,1145470
51.945,1147562
51.9554,1147295
51.9658,1149301
51.9762,1148402
51.9866,1153886
51.997,1153945
52.0074,1155149
52.0178,1156290
52.0283,1168655
52.0387,1167210
52.0491,1149953
52.0595,1153264
52.0699,1160094
52.0803,1156762
52.0907,1154336
52.1011,1133148
52.1115,1140136
52.122,1136986
52.1324,1151854
52.1428,1155831
52.1532,1157926
52.1636,1167294
52.174,1163759
52.1844,1157119
52.1948,1146795
52.2052,1143784
52.2157,1151106
52.2261,1141620
52.2365,1142142
52.2469,1165860
52.2573,1159526
52.2677,1155122
52.2781,1150720
52.2885,1153101
52.299,1155931
52.3094,1143095
52.3198,1150565
52.3302,1163071
52.3406,1160052
52.351,1156005
52.3614,1169112
52.3718,1159898
52.3822,1154452
52.3927,1177905
52.4031,1156252
52.4135,1155861
52.4239,1162974
52.4343,1157200
52.4447,1145806
52.4551,1156975
52.4655,1164434
52.476,1143641
52.4864,1152057
